timestamp,value
2025-07-02 15:58:05.836,1673
2025-07-02 15:58:05.836,1665
2025-07-02 15:58:05.836,1559
2025-07-02 15:58:05.836,1609
2025-07-02 15:58:05.836,1655
2025-07-02 15:58:05.836,1651
2025-07-02 15:58:05.836,1617
2025-07-02 15:58:05.836,1792
2025-07-02 15:58:05.836,1793
2025-07-02 15:58:05.836,1893
2025-07-02 15:58:05.836,2019
2025-07-02 15:58:05.836,2058
2025-07-02 15:58:05.836,2073
2025-07-02 15:58:05.836,1669
2025-07-02 15:58:05.836,1533
2025-07-02 15:58:05.836,1564
2025-07-02 15:58:05.836,1512
2025-07-02 15:58:05.836,1354
2025-07-02 15:58:05.836,1480
2025-07-02 15:58:05.836,1483
2025-07-02 15:58:05.836,1264
2025-07-02 15:58:05.836,1666
2025-07-02 15:58:05.836,3849
2025-07-02 15:58:05.836,3971
2025-07-02 15:58:05.836,1479
2025-07-02 15:58:05.836,251
2025-07-02 15:58:05.836,1041
2025-07-02 15:58:05.836,1336
2025-07-02 15:58:05.836,1487
2025-07-02 15:58:05.836,1546
2025-07-02 15:58:05.836,1532
2025-07-02 15:58:05.836,1580
2025-07-02 15:58:05.836,1624
2025-07-02 15:58:05.836,1743
2025-07-02 15:58:05.836,1902
2025-07-02 15:58:05.836,1922
2025-07-02 15:58:05.836,2019
2025-07-02 15:58:05.836,1999
2025-07-02 15:58:05.836,2085
2025-07-02 15:58:05.836,2171
2025-07-02 15:58:05.836,2245
2025-07-02 15:58:05.836,2255
2025-07-02 15:58:05.836,2124
2025-07-02 15:58:05.836,1922
2025-07-02 15:58:05.836,1819
2025-07-02 15:58:05.836,1561
2025-07-02 15:58:05.836,1443
2025-07-02 15:58:05.836,1543
2025-07-02 15:58:05.836,1466
2025-07-02 15:58:05.836,1389
2025-07-02 15:58:05.836,1532
2025-07-02 15:58:05.836,1604
2025-07-02 15:58:05.836,1439
2025-07-02 15:58:05.836,1539
2025-07-02 15:58:05.836,1677
2025-07-02 15:58:05.836,1688
2025-07-02 15:58:05.836,1530
2025-07-02 15:58:05.836,1655
2025-07-02 15:58:05.836,1545
2025-07-02 15:58:05.836,1594
2025-07-02 15:58:05.836,1682
2025-07-02 15:58:05.836,1638
2025-07-02 15:58:05.836,1635
2025-07-02 15:58:05.836,1647
2025-07-02 15:58:05.836,1609
2025-07-02 15:58:05.836,1682
2025-07-02 15:58:05.836,1865
2025-07-02 15:58:05.836,1814
2025-07-02 15:58:05.836,2018
2025-07-02 15:58:05.836,2162
2025-07-02 15:58:05.836,1963
2025-07-02 15:58:05.836,1911
2025-07-02 15:58:05.836,1608
2025-07-02 15:58:05.836,1595
2025-07-02 15:58:05.836,1564
2025-07-02 15:58:05.836,1519
2025-07-02 15:58:05.836,1498
2025-07-02 15:58:05.836,1475
2025-07-02 15:58:05.836,1479
2025-07-02 15:58:05.836,1294
2025-07-02 15:58:05.836,2556
2025-07-02 15:58:05.836,4325
2025-07-02 15:58:05.836,3375
2025-07-02 15:58:05.836,243
2025-07-02 15:58:05.836,727
2025-07-02 15:58:05.836,1259
2025-07-02 15:58:05.836,1370
2025-07-02 15:58:05.836,1535
2025-07-02 15:58:05.836,1689
2025-07-02 15:58:05.836,1633
2025-07-02 15:58:05.836,1672
2025-07-02 15:58:05.836,1727
2025-07-02 15:58:05.836,1753
2025-07-02 15:58:05.836,1863
2025-07-02 15:58:05.836,1938
2025-07-02 15:58:05.836,2028
2025-07-02 15:58:05.836,2179
2025-07-02 15:58:05.836,2323
2025-07-02 15:58:05.836,2212
2025-07-02 15:58:05.836,2231
2025-07-02 15:58:05.836,2171
2025-07-02 15:58:05.836,2029
2025-07-02 15:58:05.836,1834
2025-07-02 15:58:05.836,1680
2025-07-02 15:58:05.836,1515
2025-07-02 15:58:05.836,1408
2025-07-02 15:58:05.836,1434
2025-07-02 15:58:05.836,1364
2025-07-02 15:58:05.836,1303
2025-07-02 15:58:05.836,1371
2025-07-02 15:58:05.836,1420
2025-07-02 15:58:05.836,1449
2025-07-02 15:58:05.836,1525
2025-07-02 15:58:05.836,1674
2025-07-02 15:58:05.836,1437
2025-07-02 15:58:05.836,1535
2025-07-02 15:58:05.836,1422
2025-07-02 15:58:05.836,1473
2025-07-02 15:58:05.836,1509
2025-07-02 15:58:05.836,1552
2025-07-02 15:58:05.836,1538
2025-07-02 15:58:05.836,1597
2025-07-02 15:58:05.836,1441
2025-07-02 15:58:05.836,1477
2025-07-02 15:58:05.836,1538
2025-07-02 15:58:05.836,1508
2025-07-02 15:58:05.836,1735
2025-07-02 15:58:05.836,1692
2025-07-02 15:58:05.836,1978
2025-07-02 15:58:05.836,2040
2025-07-02 15:58:05.836,2007
2025-07-02 15:58:05.836,1887
2025-07-02 15:58:05.836,1579
2025-07-02 15:58:05.836,1412
2025-07-02 15:58:05.836,1382
2025-07-02 15:58:05.836,1279
2025-07-02 15:58:05.836,1295
2025-07-02 15:58:05.836,1370
2025-07-02 15:58:05.836,1328
2025-07-02 15:58:05.836,1273
2025-07-02 15:58:05.836,2644
2025-07-02 15:58:05.836,4317
2025-07-02 15:58:05.836,3004
2025-07-02 15:58:05.836,-172
2025-07-02 15:58:05.836,810
2025-07-02 15:58:05.836,1141
2025-07-02 15:58:05.836,1216
2025-07-02 15:58:05.836,1360
2025-07-02 15:58:05.836,1579
2025-07-02 15:58:05.836,1497
2025-07-02 15:58:05.836,1412
2025-07-02 15:58:05.836,1486
2025-07-02 15:58:05.836,1603
2025-07-02 15:58:05.836,1767
2025-07-02 15:58:05.836,1961
2025-07-02 15:58:05.836,1993
2025-07-02 15:58:05.836,2037
2025-07-02 15:58:05.836,2284
2025-07-02 15:58:05.836,2334
2025-07-02 15:58:05.836,2061
2025-07-02 15:58:05.836,2103
2025-07-02 15:58:05.836,1982
2025-07-02 15:58:05.836,1851
2025-07-02 15:58:05.836,1641
2025-07-02 15:58:05.836,1561
2025-07-02 15:58:05.836,1378
2025-07-02 15:58:05.836,1486
2025-07-02 15:58:05.836,1541
2025-07-02 15:58:05.836,1535
2025-07-02 15:58:05.836,1559
2025-07-02 15:58:05.836,1269
2025-07-02 15:58:05.836,1455
2025-07-02 15:58:05.836,1511
2025-07-02 15:58:05.836,1646
2025-07-02 15:58:05.836,1559
2025-07-02 15:58:05.836,1642
2025-07-02 15:58:05.836,1495
2025-07-02 15:58:05.836,1711
2025-07-02 15:58:05.836,1568
2025-07-02 15:58:05.836,1646
2025-07-02 15:58:05.836,1575
2025-07-02 15:58:05.836,1505
2025-07-02 15:58:05.836,1523
2025-07-02 15:58:05.836,1680
2025-07-02 15:58:05.836,1506
2025-07-02 15:58:05.836,1843
2025-07-02 15:58:05.836,1568
2025-07-02 15:58:05.836,1744
2025-07-02 15:58:05.836,1697
2025-07-02 15:58:05.836,1878
2025-07-02 15:58:05.836,2230
2025-07-02 15:58:05.836,2324
2025-07-02 15:58:05.836,2013
2025-07-02 15:58:05.836,2280
2025-07-02 15:58:05.836,2158
2025-07-02 15:58:05.836,1548
2025-07-02 15:58:05.836,1653
2025-07-02 15:58:05.836,1630
2025-07-02 15:58:05.836,1764
2025-07-02 15:58:05.836,1354
2025-07-02 15:58:08.254,1575
2025-07-02 15:58:08.254,1489
2025-07-02 15:58:08.254,1270
2025-07-02 15:58:08.254,2417
2025-07-02 15:58:08.254,4329
2025-07-02 15:58:08.254,3484
2025-07-02 15:58:08.254,84
2025-07-02 15:58:08.254,759
2025-07-02 15:58:08.254,1237
2025-07-02 15:58:08.254,1340
2025-07-02 15:58:08.254,1417
2025-07-02 15:58:08.254,1573
2025-07-02 15:58:08.254,1743
2025-07-02 15:58:08.254,1530
2025-07-02 15:58:08.254,1629
2025-07-02 15:58:08.254,1634
2025-07-02 15:58:08.254,1744
2025-07-02 15:58:08.254,2052
2025-07-02 15:58:08.254,2159
2025-07-02 15:58:08.254,2082
2025-07-02 15:58:08.254,2181
2025-07-02 15:58:08.254,2119
2025-07-02 15:58:08.254,2158
2025-07-02 15:58:08.254,2373
2025-07-02 15:58:08.254,2130
2025-07-02 15:58:08.254,1810
2025-07-02 15:58:08.254,1626
2025-07-02 15:58:08.254,1474
2025-07-02 15:58:08.254,1405
2025-07-02 15:58:08.254,1323
2025-07-02 15:58:08.254,1551
2025-07-02 15:58:08.254,1242
2025-07-02 15:58:08.254,1337
2025-07-02 15:58:08.254,1369
2025-07-02 15:58:08.254,1269
2025-07-02 15:58:08.254,1401
2025-07-02 15:58:08.254,1503
2025-07-02 15:58:08.254,1513
2025-07-02 15:58:08.254,1505
2025-07-02 15:58:08.254,1478
2025-07-02 15:58:08.254,1406
2025-07-02 15:58:08.254,1491
2025-07-02 15:58:08.254,1482
2025-07-02 15:58:08.254,1607
2025-07-02 15:58:08.254,1506
2025-07-02 15:58:08.254,1421
2025-07-02 15:58:08.254,1489
2025-07-02 15:58:08.254,1417
2025-07-02 15:58:08.254,1559
2025-07-02 15:58:08.254,1478
2025-07-02 15:58:08.254,1643
2025-07-02 15:58:08.254,1387
2025-07-02 15:58:08.254,1440
2025-07-02 15:58:08.254,1466
2025-07-02 15:58:08.254,1510
2025-07-02 15:58:08.254,1579
2025-07-02 15:58:08.254,1529
2025-07-02 15:58:08.254,1679
2025-07-02 15:58:08.254,1901
2025-07-02 15:58:08.254,1913
2025-07-02 15:58:08.254,1907
2025-07-02 15:58:08.254,1973
2025-07-02 15:58:08.254,2006
2025-07-02 15:58:08.254,1601
2025-07-02 15:58:08.254,1473
2025-07-02 15:58:08.254,1452
2025-07-02 15:58:08.254,1518
2025-07-02 15:58:08.254,1243
2025-07-02 15:58:08.254,1370
2025-07-02 15:58:08.254,1418
2025-07-02 15:58:08.254,1139
2025-07-02 15:58:08.254,1862
2025-07-02 15:58:08.254,4177
2025-07-02 15:58:08.254,3750
2025-07-02 15:58:08.254,655
2025-07-02 15:58:08.254,464
2025-07-02 15:58:08.254,1010
2025-07-02 15:58:08.254,1273
2025-07-02 15:58:08.254,1437
2025-07-02 15:58:08.254,1485
2025-07-02 15:58:08.254,1362
2025-07-02 15:58:08.254,1499
2025-07-02 15:58:08.254,1664
2025-07-02 15:58:08.254,1670
2025-07-02 15:58:08.254,1769
2025-07-02 15:58:08.254,1897
2025-07-02 15:58:08.254,2024
2025-07-02 15:58:08.254,2099
2025-07-02 15:58:08.254,2323
2025-07-02 15:58:08.254,2178
2025-07-02 15:58:08.254,2187
2025-07-02 15:58:08.254,2211
2025-07-02 15:58:08.254,2109
2025-07-02 15:58:08.254,1968
2025-07-02 15:58:08.254,1801
2025-07-02 15:58:08.254,1703
2025-07-02 15:58:08.254,1422
2025-07-02 15:58:08.254,1242
2025-07-02 15:58:08.254,1429
2025-07-02 15:58:08.254,1423
2025-07-02 15:58:08.254,1413
2025-07-02 15:58:08.254,1506
2025-07-02 15:58:08.254,1462
2025-07-02 15:58:08.254,1542
2025-07-02 15:58:08.254,1662
2025-07-02 15:58:08.254,1481
2025-07-02 15:58:08.254,1521
2025-07-02 15:58:08.254,1584
2025-07-02 15:58:08.254,1591
2025-07-02 15:58:08.254,1514
2025-07-02 15:58:08.254,1629
2025-07-02 15:58:08.254,1647
2025-07-02 15:58:08.254,1679
2025-07-02 15:58:08.254,1471
2025-07-02 15:58:08.254,1530
2025-07-02 15:58:08.254,1629
2025-07-02 15:58:08.254,1570
2025-07-02 15:58:08.254,1552
2025-07-02 15:58:08.254,1750
2025-07-02 15:58:08.254,1534
2025-07-02 15:58:08.254,1506
2025-07-02 15:58:08.254,1596
2025-07-02 15:58:08.254,1720
2025-07-02 15:58:08.254,1770
2025-07-02 15:58:08.254,1620
2025-07-02 15:58:08.254,1650
2025-07-02 15:58:08.254,1895
2025-07-02 15:58:08.254,2068
2025-07-02 15:58:08.254,2068
2025-07-02 15:58:08.254,2115
2025-07-02 15:58:08.254,1655
2025-07-02 15:58:08.254,1458
2025-07-02 15:58:08.254,1403
2025-07-02 15:58:08.254,1405
2025-07-02 15:58:08.254,1480
2025-07-02 15:58:08.254,1639
2025-07-02 15:58:08.254,1481
2025-07-02 15:58:08.254,1347
2025-07-02 15:58:08.254,1663
2025-07-02 15:58:08.254,4124
2025-07-02 15:58:08.254,3737
2025-07-02 15:58:08.254,796
2025-07-02 15:58:08.254,657
2025-07-02 15:58:08.254,1352
2025-07-02 15:58:08.254,1385
2025-07-02 15:58:08.254,1480
2025-07-02 15:58:08.254,1488
2025-07-02 15:58:08.254,1542
2025-07-02 15:58:08.254,1649
2025-07-02 15:58:08.254,1804
2025-07-02 15:58:08.254,1901
2025-07-02 15:58:08.254,1917
2025-07-02 15:58:08.254,2112
2025-07-02 15:58:08.254,1978
2025-07-02 15:58:08.254,2119
2025-07-02 15:58:08.254,2319
2025-07-02 15:58:08.254,2363
2025-07-02 15:58:08.254,2388
2025-07-02 15:58:08.254,2433
2025-07-02 15:58:08.254,2395
2025-07-02 15:58:08.254,1970
2025-07-02 15:58:08.254,1655
2025-07-02 15:58:08.254,1581
2025-07-02 15:58:08.254,1571
2025-07-02 15:58:08.254,1652
2025-07-02 15:58:08.254,1428
2025-07-02 15:58:08.254,1460
2025-07-02 15:58:08.254,1603
2025-07-02 15:58:08.254,1560
2025-07-02 15:58:08.254,1628
2025-07-02 15:58:08.254,1585
2025-07-02 15:58:08.254,1582
2025-07-02 15:58:08.254,1519
2025-07-02 15:58:08.254,1643
2025-07-02 15:58:08.254,1695
2025-07-02 15:58:08.254,1669
2025-07-02 15:58:08.254,1717
2025-07-02 15:58:08.254,1533
2025-07-02 15:58:08.254,1526
2025-07-02 15:58:08.254,1532
2025-07-02 15:58:08.254,1619
2025-07-02 15:58:08.254,1757
2025-07-02 15:58:08.254,1619
2025-07-02 15:58:08.254,1581
2025-07-02 15:58:08.254,1502
2025-07-02 15:58:08.254,1622
2025-07-02 15:58:08.254,1686
2025-07-02 15:58:08.254,1554
2025-07-02 15:58:08.254,1698
2025-07-02 15:58:08.254,1820
2025-07-02 15:58:08.254,2003
2025-07-02 15:58:08.254,2128
2025-07-02 15:58:08.254,2085
2025-07-02 15:58:08.254,2139
2025-07-02 15:58:08.254,1817
2025-07-02 15:58:08.254,1549
2025-07-02 15:58:08.254,1570
2025-07-02 15:58:08.254,1500
2025-07-02 15:58:08.254,1540
2025-07-02 15:58:08.254,1482
2025-07-02 15:58:10.957,1487
2025-07-02 15:58:10.957,1372
2025-07-02 15:58:10.957,1449
2025-07-02 15:58:10.957,3476
2025-07-02 15:58:10.957,4098
2025-07-02 15:58:10.957,2069
2025-07-02 15:58:10.957,70
2025-07-02 15:58:10.957,958
2025-07-02 15:58:10.957,1346
2025-07-02 15:58:10.957,1448
2025-07-02 15:58:10.957,1501
2025-07-02 15:58:10.957,1523
2025-07-02 15:58:10.957,1632
2025-07-02 15:58:10.957,1610
2025-07-02 15:58:10.957,1757
2025-07-02 15:58:10.957,1791
2025-07-02 15:58:10.957,1829
2025-07-02 15:58:10.957,1980
2025-07-02 15:58:10.957,2031
2025-07-02 15:58:10.957,2277
2025-07-02 15:58:10.957,2377
2025-07-02 15:58:10.957,2247
2025-07-02 15:58:10.957,2408
2025-07-02 15:58:10.957,2180
2025-07-02 15:58:10.957,1995
2025-07-02 15:58:10.957,1872
2025-07-02 15:58:10.957,1570
2025-07-02 15:58:10.957,1578
2025-07-02 15:58:10.957,1288
2025-07-02 15:58:10.957,1384
2025-07-02 15:58:10.957,1453
2025-07-02 15:58:10.957,1647
2025-07-02 15:58:10.957,1329
2025-07-02 15:58:10.957,1525
2025-07-02 15:58:10.957,1427
2025-07-02 15:58:10.957,1500
2025-07-02 15:58:10.957,1535
2025-07-02 15:58:10.957,1651
2025-07-02 15:58:10.957,1580
2025-07-02 15:58:10.957,1445
2025-07-02 15:58:10.957,1494
2025-07-02 15:58:10.957,1577
2025-07-02 15:58:10.957,1413
2025-07-02 15:58:10.957,1488
2025-07-02 15:58:10.957,1619
2025-07-02 15:58:10.957,1597
2025-07-02 15:58:10.957,1406
2025-07-02 15:58:10.957,1518
2025-07-02 15:58:10.957,1594
2025-07-02 15:58:10.957,1637
2025-07-02 15:58:10.957,1685
2025-07-02 15:58:10.957,1429
2025-07-02 15:58:10.957,1464
2025-07-02 15:58:10.957,1531
2025-07-02 15:58:10.957,1643
2025-07-02 15:58:10.957,1824
2025-07-02 15:58:10.957,1939
2025-07-02 15:58:10.957,1986
2025-07-02 15:58:10.957,2240
2025-07-02 15:58:10.957,2128
2025-07-02 15:58:10.957,1704
2025-07-02 15:58:10.957,1649
2025-07-02 15:58:10.957,1485
2025-07-02 15:58:10.957,1396
2025-07-02 15:58:10.957,1423
2025-07-02 15:58:10.957,1635
2025-07-02 15:58:10.957,1525
2025-07-02 15:58:10.957,1257
2025-07-02 15:58:10.957,1502
2025-07-02 15:58:10.957,3104
2025-07-02 15:58:10.957,4209
2025-07-02 15:58:10.957,2421
2025-07-02 15:58:10.957,-70
2025-07-02 15:58:10.957,1020
2025-07-02 15:58:10.957,1341
2025-07-02 15:58:10.957,1293
2025-07-02 15:58:10.957,1325
2025-07-02 15:58:10.957,1577
2025-07-02 15:58:10.957,1480
2025-07-02 15:58:10.957,1574
2025-07-02 15:58:10.957,1666
2025-07-02 15:58:10.957,1829
2025-07-02 15:58:10.957,1747
2025-07-02 15:58:10.957,1950
2025-07-02 15:58:10.957,1941
2025-07-02 15:58:10.957,2223
2025-07-02 15:58:10.957,2320
2025-07-02 15:58:10.957,2257
2025-07-02 15:58:10.957,2218
2025-07-02 15:58:10.957,2139
2025-07-02 15:58:10.957,2042
2025-07-02 15:58:10.957,1870
2025-07-02 15:58:10.957,1761
2025-07-02 15:58:10.957,1502
2025-07-02 15:58:10.957,1403
2025-07-02 15:58:10.957,1338
2025-07-02 15:58:10.957,1314
2025-07-02 15:58:10.957,1471
2025-07-02 15:58:10.957,1543
2025-07-02 15:58:10.957,1342
2025-07-02 15:58:10.957,1628
2025-07-02 15:58:10.957,1373
2025-07-02 15:58:10.957,1463
2025-07-02 15:58:10.957,1635
2025-07-02 15:58:10.957,1537
2025-07-02 15:58:10.957,1660
2025-07-02 15:58:10.957,1527
2025-07-02 15:58:10.957,1387
2025-07-02 15:58:10.957,1531
2025-07-02 15:58:10.957,1668
2025-07-02 15:58:10.957,1603
2025-07-02 15:58:10.957,1659
2025-07-02 15:58:10.957,1412
2025-07-02 15:58:10.957,1571
2025-07-02 15:58:10.957,1615
2025-07-02 15:58:10.957,1569
2025-07-02 15:58:10.957,1519
2025-07-02 15:58:10.957,1739
2025-07-02 15:58:10.957,1827
2025-07-02 15:58:10.957,1411
2025-07-02 15:58:10.957,1601
2025-07-02 15:58:10.957,1733
2025-07-02 15:58:10.957,1704
2025-07-02 15:58:10.957,1827
2025-07-02 15:58:10.957,1914
2025-07-02 15:58:10.957,2296
2025-07-02 15:58:10.957,2045
2025-07-02 15:58:10.957,2157
2025-07-02 15:58:10.957,1850
2025-07-02 15:58:10.957,1596
2025-07-02 15:58:10.957,1532
2025-07-02 15:58:10.957,1547
2025-07-02 15:58:10.957,1637
2025-07-02 15:58:10.957,1462
2025-07-02 15:58:10.957,1457
2025-07-02 15:58:10.957,1415
2025-07-02 15:58:10.957,1340
2025-07-02 15:58:10.957,3494
2025-07-02 15:58:10.957,4102
2025-07-02 15:58:10.957,2033
2025-07-02 15:58:10.957,170
2025-07-02 15:58:10.957,1042
2025-07-02 15:58:10.957,1447
2025-07-02 15:58:10.957,1388
2025-07-02 15:58:10.957,1391
2025-07-02 15:58:10.957,1552
2025-07-02 15:58:10.957,1536
2025-07-02 15:58:10.957,1644
2025-07-02 15:58:10.957,1798
2025-07-02 15:58:10.957,1833
2025-07-02 15:58:10.957,1836
2025-07-02 15:58:10.957,1885
2025-07-02 15:58:10.957,2037
2025-07-02 15:58:10.957,2108
2025-07-02 15:58:10.957,2226
2025-07-02 15:58:10.957,2316
2025-07-02 15:58:10.957,2237
2025-07-02 15:58:10.957,2143
2025-07-02 15:58:10.957,1983
2025-07-02 15:58:10.957,1955
2025-07-02 15:58:10.957,1511
2025-07-02 15:58:10.957,1458
2025-07-02 15:58:10.957,1391
2025-07-02 15:58:10.957,1382
2025-07-02 15:58:10.957,1436
2025-07-02 15:58:10.957,1385
2025-07-02 15:58:10.957,1453
2025-07-02 15:58:10.957,1309
2025-07-02 15:58:10.957,1466
2025-07-02 15:58:10.957,1540
2025-07-02 15:58:10.957,1414
2025-07-02 15:58:10.957,1398
2025-07-02 15:58:10.957,1579
2025-07-02 15:58:10.957,1564
2025-07-02 15:58:10.957,1506
2025-07-02 15:58:10.957,1532
2025-07-02 15:58:10.957,1312
2025-07-02 15:58:10.957,1499
2025-07-02 15:58:10.957,1518
2025-07-02 15:58:10.957,1374
2025-07-02 15:58:10.957,1492
2025-07-02 15:58:10.957,1521
2025-07-02 15:58:10.957,1552
2025-07-02 15:58:10.957,1471
2025-07-02 15:58:10.957,1473
2025-07-02 15:58:10.957,1479
2025-07-02 15:58:10.957,1421
2025-07-02 15:58:10.957,1536
2025-07-02 15:58:10.957,1551
2025-07-02 15:58:10.957,1681
2025-07-02 15:58:10.957,1750
2025-07-02 15:58:10.957,1948
2025-07-02 15:58:10.957,2048
2025-07-02 15:58:10.957,2026
2025-07-02 15:58:10.957,1801
2025-07-02 15:58:10.957,1500
2025-07-02 15:58:10.957,1450
2025-07-02 15:58:10.957,1467
2025-07-02 15:58:10.957,1425
2025-07-02 15:58:10.957,1479
2025-07-02 15:58:13.517,1647
2025-07-02 15:58:13.517,1438
2025-07-02 15:58:13.517,1186
2025-07-02 15:58:13.517,2692
2025-07-02 15:58:13.517,4301
2025-07-02 15:58:13.517,2816
2025-07-02 15:58:13.517,20
2025-07-02 15:58:13.517,787
2025-07-02 15:58:13.517,1397
2025-07-02 15:58:13.517,1413
2025-07-02 15:58:13.517,1395
2025-07-02 15:58:13.517,1370
2025-07-02 15:58:13.517,1518
2025-07-02 15:58:13.517,1616
2025-07-02 15:58:13.517,1687
2025-07-02 15:58:13.517,1823
2025-07-02 15:58:13.517,1942
2025-07-02 15:58:13.517,2008
2025-07-02 15:58:13.517,1932
2025-07-02 15:58:13.517,2043
2025-07-02 15:58:13.517,2134
2025-07-02 15:58:13.517,2225
2025-07-02 15:58:13.517,2206
2025-07-02 15:58:13.517,2242
2025-07-02 15:58:13.517,2107
2025-07-02 15:58:13.517,1849
2025-07-02 15:58:13.517,1664
2025-07-02 15:58:13.517,1533
2025-07-02 15:58:13.517,1353
2025-07-02 15:58:13.517,1362
2025-07-02 15:58:13.517,1410
2025-07-02 15:58:13.517,1414
2025-07-02 15:58:13.517,1408
2025-07-02 15:58:13.517,1500
2025-07-02 15:58:13.517,1684
2025-07-02 15:58:13.517,1493
2025-07-02 15:58:13.517,1429
2025-07-02 15:58:13.517,1419
2025-07-02 15:58:13.517,1523
2025-07-02 15:58:13.517,1521
2025-07-02 15:58:13.517,1585
2025-07-02 15:58:13.517,1771
2025-07-02 15:58:13.517,1595
2025-07-02 15:58:13.517,1500
2025-07-02 15:58:13.517,1444
2025-07-02 15:58:13.517,1472
2025-07-02 15:58:13.517,1588
2025-07-02 15:58:13.517,1643
2025-07-02 15:58:13.517,1655
2025-07-02 15:58:13.517,1621
2025-07-02 15:58:13.517,1689
2025-07-02 15:58:13.517,1782
2025-07-02 15:58:13.517,2045
2025-07-02 15:58:13.517,2022
2025-07-02 15:58:13.517,2077
2025-07-02 15:58:13.517,1822
2025-07-02 15:58:13.517,1683
2025-07-02 15:58:13.517,1427
2025-07-02 15:58:13.517,1442
2025-07-02 15:58:13.517,1454
2025-07-02 15:58:13.517,1436
2025-07-02 15:58:13.517,1491
2025-07-02 15:58:13.517,1324
2025-07-02 15:58:13.517,1357
2025-07-02 15:58:13.517,3238
2025-07-02 15:58:13.517,4161
2025-07-02 15:58:13.517,2309
2025-07-02 15:58:13.517,117
2025-07-02 15:58:13.517,894
2025-07-02 15:58:13.517,1291
2025-07-02 15:58:13.517,1484
2025-07-02 15:58:13.517,1565
2025-07-02 15:58:13.517,1646
2025-07-02 15:58:13.517,1633
2025-07-02 15:58:13.517,1681
2025-07-02 15:58:13.517,1757
2025-07-02 15:58:13.517,1895
2025-07-02 15:58:13.517,1977
2025-07-02 15:58:13.517,1980
2025-07-02 15:58:13.517,2247
2025-07-02 15:58:13.517,2138
2025-07-02 15:58:13.517,2322
2025-07-02 15:58:13.517,2354
2025-07-02 15:58:13.517,2344
2025-07-02 15:58:13.517,2154
2025-07-02 15:58:13.517,2218
2025-07-02 15:58:13.517,1921
2025-07-02 15:58:13.517,1619
2025-07-02 15:58:13.517,1562
2025-07-02 15:58:13.517,1456
2025-07-02 15:58:13.517,1477
2025-07-02 15:58:13.517,1502
2025-07-02 15:58:13.517,1300
2025-07-02 15:58:13.517,1521
2025-07-02 15:58:13.517,1515
2025-07-02 15:58:13.517,1546
2025-07-02 15:58:13.517,1747
2025-07-02 15:58:13.517,1572
2025-07-02 15:58:13.517,1737
2025-07-02 15:58:13.517,1552
2025-07-02 15:58:13.517,1550
2025-07-02 15:58:13.517,1642
2025-07-02 15:58:13.517,1606
2025-07-02 15:58:13.517,1648
2025-07-02 15:58:13.517,1698
2025-07-02 15:58:13.517,1714
2025-07-02 15:58:13.517,1516
2025-07-02 15:58:13.517,1659
2025-07-02 15:58:13.517,1601
2025-07-02 15:58:13.517,1700
2025-07-02 15:58:13.517,1879
2025-07-02 15:58:13.517,1820
2025-07-02 15:58:13.517,2081
2025-07-02 15:58:13.517,2164
2025-07-02 15:58:13.517,2062
2025-07-02 15:58:13.517,1993
2025-07-02 15:58:13.517,1672
2025-07-02 15:58:13.517,1535
2025-07-02 15:58:13.517,1516
2025-07-02 15:58:13.517,1551
2025-07-02 15:58:13.517,1553
2025-07-02 15:58:13.517,1496
2025-07-02 15:58:13.517,1524
2025-07-02 15:58:13.517,1308
2025-07-02 15:58:13.517,2599
2025-07-02 15:58:13.517,4315
2025-07-02 15:58:13.517,3269
2025-07-02 15:58:13.517,75
2025-07-02 15:58:13.517,872
2025-07-02 15:58:13.517,1404
2025-07-02 15:58:13.517,1385
2025-07-02 15:58:13.517,1498
2025-07-02 15:58:13.517,1541
2025-07-02 15:58:13.517,1623
2025-07-02 15:58:13.517,1671
2025-07-02 15:58:13.517,1839
2025-07-02 15:58:13.517,1843
2025-07-02 15:58:13.517,1854
2025-07-02 15:58:13.517,1979
2025-07-02 15:58:13.517,2013
2025-07-02 15:58:13.517,2187
2025-07-02 15:58:13.517,2310
2025-07-02 15:58:13.517,2297
2025-07-02 15:58:13.517,2432
2025-07-02 15:58:13.517,2203
2025-07-02 15:58:13.517,1996
2025-07-02 15:58:13.517,1795
2025-07-02 15:58:13.517,1665
2025-07-02 15:58:13.517,1529
2025-07-02 15:58:13.517,1487
2025-07-02 15:58:13.517,1276
2025-07-02 15:58:13.517,1367
2025-07-02 15:58:13.517,1403
2025-07-02 15:58:13.517,1386
2025-07-02 15:58:13.517,1468
2025-07-02 15:58:13.517,1575
2025-07-02 15:58:13.517,1381
2025-07-02 15:58:13.517,1510
2025-07-02 15:58:13.517,1513
2025-07-02 15:58:13.517,1528
2025-07-02 15:58:13.517,1531
2025-07-02 15:58:13.517,1459
2025-07-02 15:58:13.517,1498
2025-07-02 15:58:13.517,1613
2025-07-02 15:58:13.517,1501
2025-07-02 15:58:13.517,1546
2025-07-02 15:58:13.517,1597
2025-07-02 15:58:13.517,1416
2025-07-02 15:58:13.517,1470
2025-07-02 15:58:13.517,1534
2025-07-02 15:58:13.517,1588
2025-07-02 15:58:13.517,1753
2025-07-02 15:58:13.517,1803
2025-07-02 15:58:13.517,2032
2025-07-02 15:58:13.517,2027
2025-07-02 15:58:13.517,1987
2025-07-02 15:58:13.517,1928
2025-07-02 15:58:13.517,1567
2025-07-02 15:58:13.517,1447
2025-07-02 15:58:13.517,1450
2025-07-02 15:58:13.517,1387
2025-07-02 15:58:13.517,1428
2025-07-02 15:58:13.517,1393
2025-07-02 15:58:13.517,1340
2025-07-02 15:58:13.517,1220
2025-07-02 15:58:13.517,2363
2025-07-02 15:58:13.517,4309
2025-07-02 15:58:13.517,3419
2025-07-02 15:58:13.517,-7
2025-07-02 15:58:13.517,760
2025-07-02 15:58:13.517,1257
2025-07-02 15:58:13.517,1304
2025-07-02 15:58:13.517,1386
2025-07-02 15:58:13.517,1430
2025-07-02 15:58:13.517,1546
2025-07-02 15:58:13.517,1588
2025-07-02 15:58:13.517,1631
2025-07-02 15:58:13.517,1689
2025-07-02 15:58:13.517,1957
2025-07-02 15:58:13.517,1932
2025-07-02 15:58:16.066,1868
2025-07-02 15:58:16.066,2113
2025-07-02 15:58:16.066,2196
2025-07-02 15:58:16.066,2219
2025-07-02 15:58:16.066,2325
2025-07-02 15:58:16.066,2313
2025-07-02 15:58:16.066,2271
2025-07-02 15:58:16.066,1827
2025-07-02 15:58:16.066,1650
2025-07-02 15:58:16.066,1485
2025-07-02 15:58:16.066,1467
2025-07-02 15:58:16.066,1447
2025-07-02 15:58:16.066,1520
2025-07-02 15:58:16.066,1612
2025-07-02 15:58:16.066,1533
2025-07-02 15:58:16.066,1345
2025-07-02 15:58:16.066,1491
2025-07-02 15:58:16.066,1476
2025-07-02 15:58:16.066,1599
2025-07-02 15:58:16.066,1617
2025-07-02 15:58:16.066,1551
2025-07-02 15:58:16.066,1668
2025-07-02 15:58:16.066,1538
2025-07-02 15:58:16.066,1496
2025-07-02 15:58:16.066,1540
2025-07-02 15:58:16.066,1588
2025-07-02 15:58:16.066,1601
2025-07-02 15:58:16.066,1604
2025-07-02 15:58:16.066,1574
2025-07-02 15:58:16.066,1652
2025-07-02 15:58:16.066,1531
2025-07-02 15:58:16.066,1604
2025-07-02 15:58:16.066,1639
2025-07-02 15:58:16.066,1661
2025-07-02 15:58:16.066,1647
2025-07-02 15:58:16.066,1651
2025-07-02 15:58:16.066,1604
2025-07-02 15:58:16.066,1898
2025-07-02 15:58:16.066,1917
2025-07-02 15:58:16.066,2137
2025-07-02 15:58:16.066,2042
2025-07-02 15:58:16.066,2177
2025-07-02 15:58:16.066,1905
2025-07-02 15:58:16.066,1489
2025-07-02 15:58:16.066,1467
2025-07-02 15:58:16.066,1443
2025-07-02 15:58:16.066,1436
2025-07-02 15:58:16.066,1426
2025-07-02 15:58:16.066,1495
2025-07-02 15:58:16.066,1404
2025-07-02 15:58:16.066,1302
2025-07-02 15:58:16.066,3548
2025-07-02 15:58:16.066,4070
2025-07-02 15:58:16.066,1732
2025-07-02 15:58:16.066,202
2025-07-02 15:58:16.066,1052
2025-07-02 15:58:16.066,1170
2025-07-02 15:58:16.066,1311
2025-07-02 15:58:16.066,1408
2025-07-02 15:58:16.066,1513
2025-07-02 15:58:16.066,1511
2025-07-02 15:58:16.066,1632
2025-07-02 15:58:16.066,1671
2025-07-02 15:58:16.066,1700
2025-07-02 15:58:16.066,1750
2025-07-02 15:58:16.066,1989
2025-07-02 15:58:16.066,1979
2025-07-02 15:58:16.066,2134
2025-07-02 15:58:16.066,2282
2025-07-02 15:58:16.066,2254
2025-07-02 15:58:16.066,2303
2025-07-02 15:58:16.066,2161
2025-07-02 15:58:16.066,2139
2025-07-02 15:58:16.066,1849
2025-07-02 15:58:16.066,1542
2025-07-02 15:58:16.066,1529
2025-07-02 15:58:16.066,1480
2025-07-02 15:58:16.066,1378
2025-07-02 15:58:16.066,1397
2025-07-02 15:58:16.066,1446
2025-07-02 15:58:16.066,1415
2025-07-02 15:58:16.066,1475
2025-07-02 15:58:16.066,1571
2025-07-02 15:58:16.066,1582
2025-07-02 15:58:16.066,1467
2025-07-02 15:58:16.066,1480
2025-07-02 15:58:16.066,1577
2025-07-02 15:58:16.066,1515
2025-07-02 15:58:16.066,1609
2025-07-02 15:58:16.066,1581
2025-07-02 15:58:16.066,1602
2025-07-02 15:58:16.066,1481
2025-07-02 15:58:16.066,1538
2025-07-02 15:58:16.066,1479
2025-07-02 15:58:16.066,1536
2025-07-02 15:58:16.066,1606
2025-07-02 15:58:16.066,1570
2025-07-02 15:58:16.066,1482
2025-07-02 15:58:16.066,1514
2025-07-02 15:58:16.066,1532
2025-07-02 15:58:16.066,1545
2025-07-02 15:58:16.066,1684
2025-07-02 15:58:16.066,1578
2025-07-02 15:58:16.066,1470
2025-07-02 15:58:16.066,1686
2025-07-02 15:58:16.066,1540
2025-07-02 15:58:16.066,1714
2025-07-02 15:58:16.066,1810
2025-07-02 15:58:16.066,1893
2025-07-02 15:58:16.066,2137
2025-07-02 15:58:16.066,2028
2025-07-02 15:58:16.066,2122
2025-07-02 15:58:16.066,1738
2025-07-02 15:58:16.066,1423
2025-07-02 15:58:16.066,1463
2025-07-02 15:58:16.066,1359
2025-07-02 15:58:16.066,1398
2025-07-02 15:58:16.066,1487
2025-07-02 15:58:16.066,1480
2025-07-02 15:58:16.066,1156
2025-07-02 15:58:16.066,1686
2025-07-02 15:58:16.066,4008
2025-07-02 15:58:16.066,3795
2025-07-02 15:58:16.066,627
2025-07-02 15:58:16.066,437
2025-07-02 15:58:16.066,962
2025-07-02 15:58:16.066,1196
2025-07-02 15:58:16.066,1350
2025-07-02 15:58:16.066,1275
2025-07-02 15:58:16.066,1455
2025-07-02 15:58:16.066,1513
2025-07-02 15:58:16.066,1537
2025-07-02 15:58:16.066,1489
2025-07-02 15:58:16.066,1739
2025-07-02 15:58:16.066,1604
2025-07-02 15:58:16.066,1832
2025-07-02 15:58:16.066,1863
2025-07-02 15:58:16.066,2074
2025-07-02 15:58:16.066,2158
2025-07-02 15:58:16.066,2237
2025-07-02 15:58:16.066,2098
2025-07-02 15:58:16.066,2018
2025-07-02 15:58:16.066,1845
2025-07-02 15:58:16.066,1667
2025-07-02 15:58:16.066,1546
2025-07-02 15:58:16.066,1465
2025-07-02 15:58:16.066,1399
2025-07-02 15:58:16.066,1286
2025-07-02 15:58:16.066,1281
2025-07-02 15:58:16.066,1299
2025-07-02 15:58:16.066,1441
2025-07-02 15:58:16.066,1390
2025-07-02 15:58:16.066,1463
2025-07-02 15:58:16.066,1493
2025-07-02 15:58:16.066,1572
2025-07-02 15:58:16.066,1455
2025-07-02 15:58:16.066,1344
2025-07-02 15:58:16.066,1416
2025-07-02 15:58:16.066,1473
2025-07-02 15:58:16.066,1526
2025-07-02 15:58:16.066,1537
2025-07-02 15:58:16.066,1550
2025-07-02 15:58:16.066,1408
2025-07-02 15:58:16.066,1552
2025-07-02 15:58:16.066,1463
2025-07-02 15:58:16.066,1478
2025-07-02 15:58:16.066,1594
2025-07-02 15:58:16.066,1527
2025-07-02 15:58:16.066,1416
2025-07-02 15:58:16.066,1588
2025-07-02 15:58:16.066,1551
2025-07-02 15:58:16.066,1518
2025-07-02 15:58:16.066,1555
2025-07-02 15:58:16.066,1876
2025-07-02 15:58:16.066,1560
2025-07-02 15:58:16.066,1826
2025-07-02 15:58:16.066,2064
2025-07-02 15:58:16.066,1986
2025-07-02 15:58:16.066,2006
2025-07-02 15:58:16.066,1898
2025-07-02 15:58:16.066,1662
2025-07-02 15:58:16.066,1388
2025-07-02 15:58:16.066,1429
2025-07-02 15:58:16.066,1393
2025-07-02 15:58:16.066,1428
2025-07-02 15:58:16.066,1538
2025-07-02 15:58:16.066,1507
2025-07-02 15:58:16.066,1448
2025-07-02 15:58:16.066,3332
2025-07-02 15:58:16.066,4125
2025-07-02 15:58:16.066,2021
2025-07-02 15:58:16.066,217
2025-07-02 15:58:16.066,976
2025-07-02 15:58:16.066,1339
2025-07-02 15:58:16.066,1522
2025-07-02 15:58:16.066,1337
2025-07-02 15:58:16.066,1463
2025-07-02 15:58:16.066,1578
2025-07-02 15:58:16.066,1639
2025-07-02 15:58:16.066,1790
2025-07-02 15:58:18.665,1775
2025-07-02 15:58:18.665,1835
2025-07-02 15:58:18.665,1920
2025-07-02 15:58:18.665,2112
2025-07-02 15:58:18.665,2078
2025-07-02 15:58:18.665,2293
2025-07-02 15:58:18.665,2256
2025-07-02 15:58:18.665,2306
2025-07-02 15:58:18.665,2162
2025-07-02 15:58:18.665,2048
2025-07-02 15:58:18.665,1810
2025-07-02 15:58:18.665,1598
2025-07-02 15:58:18.665,1540
2025-07-02 15:58:18.665,1521
2025-07-02 15:58:18.665,1449
2025-07-02 15:58:18.665,1479
2025-07-02 15:58:18.665,1294
2025-07-02 15:58:18.665,1431
2025-07-02 15:58:18.665,1426
2025-07-02 15:58:18.665,1472
2025-07-02 15:58:18.665,1693
2025-07-02 15:58:18.665,1605
2025-07-02 15:58:18.665,1491
2025-07-02 15:58:18.665,1486
2025-07-02 15:58:18.665,1580
2025-07-02 15:58:18.665,1539
2025-07-02 15:58:18.665,1564
2025-07-02 15:58:18.665,1562
2025-07-02 15:58:18.665,1559
2025-07-02 15:58:18.665,1468
2025-07-02 15:58:18.665,1634
2025-07-02 15:58:18.665,1557
2025-07-02 15:58:18.665,1630
2025-07-02 15:58:18.665,1687
2025-07-02 15:58:18.665,1484
2025-07-02 15:58:18.665,1562
2025-07-02 15:58:18.665,1752
2025-07-02 15:58:18.665,1871
2025-07-02 15:58:18.665,1951
2025-07-02 15:58:18.665,2212
2025-07-02 15:58:18.665,2145
2025-07-02 15:58:18.665,2060
2025-07-02 15:58:18.665,1674
2025-07-02 15:58:18.665,1562
2025-07-02 15:58:18.665,1471
2025-07-02 15:58:18.665,1597
2025-07-02 15:58:18.665,1593
2025-07-02 15:58:18.665,1541
2025-07-02 15:58:18.665,1377
2025-07-02 15:58:18.665,1207
2025-07-02 15:58:18.665,1973
2025-07-02 15:58:18.665,4246
2025-07-02 15:58:18.665,3670
2025-07-02 15:58:18.665,470
2025-07-02 15:58:18.665,768
2025-07-02 15:58:18.665,1145
2025-07-02 15:58:18.665,1384
2025-07-02 15:58:18.665,1533
2025-07-02 15:58:18.665,1398
2025-07-02 15:58:18.665,1560
2025-07-02 15:58:18.665,1656
2025-07-02 15:58:18.665,1644
2025-07-02 15:58:18.665,1700
2025-07-02 15:58:18.665,1828
2025-07-02 15:58:18.665,1925
2025-07-02 15:58:18.665,1884
2025-07-02 15:58:18.665,2166
2025-07-02 15:58:18.665,2163
2025-07-02 15:58:18.665,2188
2025-07-02 15:58:18.665,2408
2025-07-02 15:58:18.665,2167
2025-07-02 15:58:18.665,2162
2025-07-02 15:58:18.665,2019
2025-07-02 15:58:18.665,1774
2025-07-02 15:58:18.665,1573
2025-07-02 15:58:18.665,1422
2025-07-02 15:58:18.665,1374
2025-07-02 15:58:18.665,1442
2025-07-02 15:58:18.665,1443
2025-07-02 15:58:18.665,1446
2025-07-02 15:58:18.665,1597
2025-07-02 15:58:18.665,1397
2025-07-02 15:58:18.665,1629
2025-07-02 15:58:18.665,1429
2025-07-02 15:58:18.665,1627
2025-07-02 15:58:18.665,1591
2025-07-02 15:58:18.665,1518
2025-07-02 15:58:18.665,1576
2025-07-02 15:58:18.665,1637
2025-07-02 15:58:18.665,1738
2025-07-02 15:58:18.665,1544
2025-07-02 15:58:18.665,1555
2025-07-02 15:58:18.665,1552
2025-07-02 15:58:18.665,1532
2025-07-02 15:58:18.665,1606
2025-07-02 15:58:18.665,1596
2025-07-02 15:58:18.665,1773
2025-07-02 15:58:18.665,1750
2025-07-02 15:58:18.665,1879
2025-07-02 15:58:18.665,2056
2025-07-02 15:58:18.665,1985
2025-07-02 15:58:18.665,2071
2025-07-02 15:58:18.665,2042
2025-07-02 15:58:18.665,1762
2025-07-02 15:58:18.665,1598
2025-07-02 15:58:18.665,1702
2025-07-02 15:58:18.665,1670
2025-07-02 15:58:18.665,1305
2025-07-02 15:58:18.665,1533
2025-07-02 15:58:18.665,1441
2025-07-02 15:58:18.665,1191
2025-07-02 15:58:18.665,1821
2025-07-02 15:58:18.665,4120
2025-07-02 15:58:18.665,3802
2025-07-02 15:58:18.665,709
2025-07-02 15:58:18.665,591
2025-07-02 15:58:18.665,1130
2025-07-02 15:58:18.665,1437
2025-07-02 15:58:18.665,1417
2025-07-02 15:58:18.665,1544
2025-07-02 15:58:18.665,1568
2025-07-02 15:58:18.665,1646
2025-07-02 15:58:18.665,1764
2025-07-02 15:58:18.665,1767
2025-07-02 15:58:18.665,1856
2025-07-02 15:58:18.665,1843
2025-07-02 15:58:18.665,2036
2025-07-02 15:58:18.665,2224
2025-07-02 15:58:18.665,2251
2025-07-02 15:58:18.665,2298
2025-07-02 15:58:18.665,2400
2025-07-02 15:58:18.665,2351
2025-07-02 15:58:18.665,2211
2025-07-02 15:58:18.665,2013
2025-07-02 15:58:18.665,1889
2025-07-02 15:58:18.665,1592
2025-07-02 15:58:18.665,1584
2025-07-02 15:58:18.665,1568
2025-07-02 15:58:18.665,1417
2025-07-02 15:58:18.665,1553
2025-07-02 15:58:18.665,1628
2025-07-02 15:58:18.665,1581
2025-07-02 15:58:18.665,1561
2025-07-02 15:58:18.665,1714
2025-07-02 15:58:18.665,1685
2025-07-02 15:58:18.665,1548
2025-07-02 15:58:18.665,1717
2025-07-02 15:58:18.665,1742
2025-07-02 15:58:18.665,1606
2025-07-02 15:58:18.665,1703
2025-07-02 15:58:18.665,1757
2025-07-02 15:58:18.665,1600
2025-07-02 15:58:18.665,1657
2025-07-02 15:58:18.665,1669
2025-07-02 15:58:18.665,1619
2025-07-02 15:58:18.665,1626
2025-07-02 15:58:18.665,1806
2025-07-02 15:58:18.665,1508
2025-07-02 15:58:18.665,1667
2025-07-02 15:58:18.665,1875
2025-07-02 15:58:18.665,1747
2025-07-02 15:58:18.665,1948
2025-07-02 15:58:18.665,2079
2025-07-02 15:58:18.665,2053
2025-07-02 15:58:18.665,2162
2025-07-02 15:58:18.665,1806
2025-07-02 15:58:18.665,1714
2025-07-02 15:58:18.665,1353
2025-07-02 15:58:18.665,1464
2025-07-02 15:58:18.665,1449
2025-07-02 15:58:18.665,1368
2025-07-02 15:58:18.665,1518
2025-07-02 15:58:18.665,1426
2025-07-02 15:58:18.665,1267
2025-07-02 15:58:18.665,2775
2025-07-02 15:58:18.665,4276
2025-07-02 15:58:18.665,2526
2025-07-02 15:58:18.665,-143
2025-07-02 15:58:18.665,882
2025-07-02 15:58:18.665,1376
2025-07-02 15:58:18.665,1408
2025-07-02 15:58:18.665,1284
2025-07-02 15:58:18.665,1456
2025-07-02 15:58:18.665,1485
2025-07-02 15:58:18.665,1633
2025-07-02 15:58:18.665,1655
2025-07-02 15:58:18.665,1726
2025-07-02 15:58:18.665,1812
2025-07-02 15:58:18.665,1803
2025-07-02 15:58:18.665,2123
2025-07-02 15:58:18.665,2096
2025-07-02 15:58:18.665,2121
2025-07-02 15:58:18.665,2149
2025-07-02 15:58:18.665,2166
2025-07-02 15:58:18.665,2267
2025-07-02 15:58:18.665,1996
2025-07-02 15:58:18.665,1799
2025-07-02 15:58:18.665,1730
2025-07-02 15:58:18.665,1375
2025-07-02 15:58:18.665,1384
2025-07-02 15:58:21.275,1338
2025-07-02 15:58:21.275,1431
2025-07-02 15:58:21.275,1501
2025-07-02 15:58:21.275,1521
2025-07-02 15:58:21.275,1480
2025-07-02 15:58:21.275,1409
2025-07-02 15:58:21.275,1545
2025-07-02 15:58:21.275,1597
2025-07-02 15:58:21.275,1578
2025-07-02 15:58:21.275,1664
2025-07-02 15:58:21.275,1625
2025-07-02 15:58:21.275,1468
2025-07-02 15:58:21.275,1585
2025-07-02 15:58:21.275,1626
2025-07-02 15:58:21.275,1581
2025-07-02 15:58:21.275,1661
2025-07-02 15:58:21.275,1629
2025-07-02 15:58:21.275,1644
2025-07-02 15:58:21.275,1446
2025-07-02 15:58:21.275,1604
2025-07-02 15:58:21.275,1614
2025-07-02 15:58:21.275,1651
2025-07-02 15:58:21.275,1673
2025-07-02 15:58:21.275,1665
2025-07-02 15:58:21.275,1705
2025-07-02 15:58:21.275,1870
2025-07-02 15:58:21.275,2042
2025-07-02 15:58:21.275,2047
2025-07-02 15:58:21.275,2092
2025-07-02 15:58:21.275,1804
2025-07-02 15:58:21.275,1699
2025-07-02 15:58:21.275,1401
2025-07-02 15:58:21.275,1352
2025-07-02 15:58:21.275,1405
2025-07-02 15:58:21.275,1420
2025-07-02 15:58:21.275,1474
2025-07-02 15:58:21.275,1325
2025-07-02 15:58:21.275,1619
2025-07-02 15:58:21.275,3583
2025-07-02 15:58:21.275,4047
2025-07-02 15:58:21.275,1574
2025-07-02 15:58:21.275,154
2025-07-02 15:58:21.275,1034
2025-07-02 15:58:21.275,1347
2025-07-02 15:58:21.275,1419
2025-07-02 15:58:21.275,1472
2025-07-02 15:58:21.275,1392
2025-07-02 15:58:21.275,1607
2025-07-02 15:58:21.275,1689
2025-07-02 15:58:21.275,1688
2025-07-02 15:58:21.275,1861
2025-07-02 15:58:21.275,1807
2025-07-02 15:58:21.275,1846
2025-07-02 15:58:21.275,2033
2025-07-02 15:58:21.275,2156
2025-07-02 15:58:21.275,2194
2025-07-02 15:58:21.275,2293
2025-07-02 15:58:21.275,2270
2025-07-02 15:58:21.275,2172
2025-07-02 15:58:21.275,1844
2025-07-02 15:58:21.275,1780
2025-07-02 15:58:21.275,1638
2025-07-02 15:58:21.275,1501
2025-07-02 15:58:21.275,1398
2025-07-02 15:58:21.275,1362
2025-07-02 15:58:21.275,1389
2025-07-02 15:58:21.275,1387
2025-07-02 15:58:21.275,1450
2025-07-02 15:58:21.275,1524
2025-07-02 15:58:21.275,1537
2025-07-02 15:58:21.275,1433
2025-07-02 15:58:21.275,1425
2025-07-02 15:58:21.275,1578
2025-07-02 15:58:21.275,1493
2025-07-02 15:58:21.275,1572
2025-07-02 15:58:21.275,1540
2025-07-02 15:58:21.275,1573
2025-07-02 15:58:21.275,1566
2025-07-02 15:58:21.275,1455
2025-07-02 15:58:21.275,1552
2025-07-02 15:58:21.275,1420
2025-07-02 15:58:21.275,1463
2025-07-02 15:58:21.275,1499
2025-07-02 15:58:21.275,1639
2025-07-02 15:58:21.275,1757
2025-07-02 15:58:21.275,1887
2025-07-02 15:58:21.275,1982
2025-07-02 15:58:21.275,1829
2025-07-02 15:58:21.275,1910
2025-07-02 15:58:21.275,1606
2025-07-02 15:58:21.275,1411
2025-07-02 15:58:21.275,1410
2025-07-02 15:58:21.275,1480
2025-07-02 15:58:21.275,1376
2025-07-02 15:58:21.275,1524
2025-07-02 15:58:21.275,1349
2025-07-02 15:58:21.275,1185
2025-07-02 15:58:21.275,1448
2025-07-02 15:58:21.275,3504
2025-07-02 15:58:21.275,4070
2025-07-02 15:58:21.275,1779
2025-07-02 15:58:21.275,156
2025-07-02 15:58:21.275,814
2025-07-02 15:58:21.275,1365
2025-07-02 15:58:21.275,1444
2025-07-02 15:58:21.275,1510
2025-07-02 15:58:21.275,1667
2025-07-02 15:58:21.275,1621
2025-07-02 15:58:21.275,1604
2025-07-02 15:58:21.275,1620
2025-07-02 15:58:21.275,1786
2025-07-02 15:58:21.275,1927
2025-07-02 15:58:21.275,2090
2025-07-02 15:58:21.275,2208
2025-07-02 15:58:21.275,2309
2025-07-02 15:58:21.275,2294
2025-07-02 15:58:21.275,2368
2025-07-02 15:58:21.275,2283
2025-07-02 15:58:21.275,2109
2025-07-02 15:58:21.275,2055
2025-07-02 15:58:21.275,1847
2025-07-02 15:58:21.275,1767
2025-07-02 15:58:21.275,1575
2025-07-02 15:58:21.275,1397
2025-07-02 15:58:21.275,1489
2025-07-02 15:58:21.275,1346
2025-07-02 15:58:21.275,1480
2025-07-02 15:58:21.275,1467
2025-07-02 15:58:21.275,1534
2025-07-02 15:58:21.275,1699
2025-07-02 15:58:21.275,1674
2025-07-02 15:58:21.275,1591
2025-07-02 15:58:21.275,1463
2025-07-02 15:58:21.275,1537
2025-07-02 15:58:21.275,1608
2025-07-02 15:58:21.275,1623
2025-07-02 15:58:21.275,1689
2025-07-02 15:58:21.275,1682
2025-07-02 15:58:21.275,1584
2025-07-02 15:58:21.275,1595
2025-07-02 15:58:21.275,1589
2025-07-02 15:58:21.275,1733
2025-07-02 15:58:21.275,1747
2025-07-02 15:58:21.275,2017
2025-07-02 15:58:21.275,2023
2025-07-02 15:58:21.275,1988
2025-07-02 15:58:21.275,1915
2025-07-02 15:58:21.275,1600
2025-07-02 15:58:21.275,1399
2025-07-02 15:58:21.275,1408
2025-07-02 15:58:21.275,1409
2025-07-02 15:58:21.275,1502
2025-07-02 15:58:21.275,1576
2025-07-02 15:58:21.275,1364
2025-07-02 15:58:21.275,1238
2025-07-02 15:58:21.275,1926
2025-07-02 15:58:21.275,4188
2025-07-02 15:58:21.275,3651
2025-07-02 15:58:21.275,612
2025-07-02 15:58:21.275,658
2025-07-02 15:58:21.275,1301
2025-07-02 15:58:21.275,1319
2025-07-02 15:58:21.275,1416
2025-07-02 15:58:21.275,1533
2025-07-02 15:58:21.275,1630
2025-07-02 15:58:21.275,1698
2025-07-02 15:58:21.275,1890
2025-07-02 15:58:21.275,1886
2025-07-02 15:58:21.275,1950
2025-07-02 15:58:21.275,2011
2025-07-02 15:58:21.275,2166
2025-07-02 15:58:21.275,2205
2025-07-02 15:58:21.275,2357
2025-07-02 15:58:21.275,2337
2025-07-02 15:58:21.275,2356
2025-07-02 15:58:21.275,2323
2025-07-02 15:58:21.275,2270
2025-07-02 15:58:21.275,2032
2025-07-02 15:58:21.275,1738
2025-07-02 15:58:21.275,1464
2025-07-02 15:58:21.275,1324
2025-07-02 15:58:21.275,1354
2025-07-02 15:58:21.275,1312
2025-07-02 15:58:21.275,1374
2025-07-02 15:58:21.275,1426
2025-07-02 15:58:21.275,1470
2025-07-02 15:58:21.275,1639
2025-07-02 15:58:21.275,1412
2025-07-02 15:58:21.275,1481
2025-07-02 15:58:21.275,1541
2025-07-02 15:58:21.275,1476
2025-07-02 15:58:21.275,1596
2025-07-02 15:58:21.275,1537
2025-07-02 15:58:21.275,1558
2025-07-02 15:58:21.275,1638
2025-07-02 15:58:21.275,1568
2025-07-02 15:58:21.275,1661
2025-07-02 15:58:21.275,1750
2025-07-02 15:58:21.275,2006
2025-07-02 15:58:21.275,1916
2025-07-02 15:58:23.898,1906
2025-07-02 15:58:23.898,1726
2025-07-02 15:58:23.898,1468
2025-07-02 15:58:23.898,1323
2025-07-02 15:58:23.898,1266
2025-07-02 15:58:23.898,1376
2025-07-02 15:58:23.898,1233
2025-07-02 15:58:23.898,1342
2025-07-02 15:58:23.898,1366
2025-07-02 15:58:23.898,1120
2025-07-02 15:58:23.898,2384
2025-07-02 15:58:23.898,4310
2025-07-02 15:58:23.898,3208
2025-07-02 15:58:23.898,134
2025-07-02 15:58:23.898,652
2025-07-02 15:58:23.898,1246
2025-07-02 15:58:23.898,1327
2025-07-02 15:58:23.898,1430
2025-07-02 15:58:23.898,1425
2025-07-02 15:58:23.898,1634
2025-07-02 15:58:23.898,1681
2025-07-02 15:58:23.898,1738
2025-07-02 15:58:23.898,1788
2025-07-02 15:58:23.898,1846
2025-07-02 15:58:23.898,1952
2025-07-02 15:58:23.898,2058
2025-07-02 15:58:23.898,2291
2025-07-02 15:58:23.898,2468
2025-07-02 15:58:23.898,2389
2025-07-02 15:58:23.898,2368
2025-07-02 15:58:23.898,2268
2025-07-02 15:58:23.898,2037
2025-07-02 15:58:23.898,1839
2025-07-02 15:58:23.898,1840
2025-07-02 15:58:23.898,1443
2025-07-02 15:58:23.898,1515
2025-07-02 15:58:23.898,1342
2025-07-02 15:58:23.898,1483
2025-07-02 15:58:23.898,1464
2025-07-02 15:58:23.898,1294
2025-07-02 15:58:23.898,1409
2025-07-02 15:58:23.898,1426
2025-07-02 15:58:23.898,1538
2025-07-02 15:58:23.898,1557
2025-07-02 15:58:23.898,1648
2025-07-02 15:58:23.898,1607
2025-07-02 15:58:23.898,1652
2025-07-02 15:58:23.898,1471
2025-07-02 15:58:23.898,1594
2025-07-02 15:58:23.898,1574
2025-07-02 15:58:23.898,1503
2025-07-02 15:58:23.898,1728
2025-07-02 15:58:23.898,1828
2025-07-02 15:58:23.898,1960
2025-07-02 15:58:23.898,2062
2025-07-02 15:58:23.898,2018
2025-07-02 15:58:23.898,1921
2025-07-02 15:58:23.898,1664
2025-07-02 15:58:23.898,1438
2025-07-02 15:58:23.898,1483
2025-07-02 15:58:23.898,1466
2025-07-02 15:58:23.898,1437
2025-07-02 15:58:23.898,1335
2025-07-02 15:58:23.898,1424
2025-07-02 15:58:23.898,1357
2025-07-02 15:58:23.898,1564
2025-07-02 15:58:23.898,3454
2025-07-02 15:58:23.898,4110
2025-07-02 15:58:23.898,2029
2025-07-02 15:58:23.898,70
2025-07-02 15:58:23.898,991
2025-07-02 15:58:23.898,1390
2025-07-02 15:58:23.898,1460
2025-07-02 15:58:23.898,1611
2025-07-02 15:58:23.898,1470
2025-07-02 15:58:23.898,1633
2025-07-02 15:58:23.898,1701
2025-07-02 15:58:23.898,1816
2025-07-02 15:58:23.898,1924
2025-07-02 15:58:23.898,1963
2025-07-02 15:58:23.898,2097
2025-07-02 15:58:23.898,2193
2025-07-02 15:58:23.898,2233
2025-07-02 15:58:23.898,2481
2025-07-02 15:58:23.898,2397
2025-07-02 15:58:23.898,2427
2025-07-02 15:58:23.898,2286
2025-07-02 15:58:23.898,2099
2025-07-02 15:58:23.898,1817
2025-07-02 15:58:23.898,1733
2025-07-02 15:58:23.898,1513
2025-07-02 15:58:23.898,1536
2025-07-02 15:58:23.898,1357
2025-07-02 15:58:23.898,1406
2025-07-02 15:58:23.898,1440
2025-07-02 15:58:23.898,1506
2025-07-02 15:58:23.898,1443
2025-07-02 15:58:23.898,1567
2025-07-02 15:58:23.898,1551
2025-07-02 15:58:23.898,1594
2025-07-02 15:58:23.898,1541
2025-07-02 15:58:23.898,1577
2025-07-02 15:58:23.898,1694
2025-07-02 15:58:23.898,1489
2025-07-02 15:58:23.898,1549
2025-07-02 15:58:23.898,1622
2025-07-02 15:58:23.898,1639
2025-07-02 15:58:23.898,1618
2025-07-02 15:58:23.898,1559
2025-07-02 15:58:23.898,1585
2025-07-02 15:58:23.898,1501
2025-07-02 15:58:23.898,1601
2025-07-02 15:58:23.898,1559
2025-07-02 15:58:23.898,1724
2025-07-02 15:58:23.898,1637
2025-07-02 15:58:23.898,1638
2025-07-02 15:58:23.898,1680
2025-07-02 15:58:23.898,1670
2025-07-02 15:58:23.898,1718
2025-07-02 15:58:23.898,1935
2025-07-02 15:58:23.898,2138
2025-07-02 15:58:23.898,2112
2025-07-02 15:58:23.898,2316
2025-07-02 15:58:23.898,1672
2025-07-02 15:58:23.898,1447
2025-07-02 15:58:23.898,1450
2025-07-02 15:58:23.898,1450
2025-07-02 15:58:23.898,1548
2025-07-02 15:58:23.898,1690
2025-07-02 15:58:23.898,1565
2025-07-02 15:58:23.898,1382
2025-07-02 15:58:23.898,1522
2025-07-02 15:58:23.898,3820
2025-07-02 15:58:23.898,3998
2025-07-02 15:58:23.898,1658
2025-07-02 15:58:23.898,219
2025-07-02 15:58:23.898,1040
2025-07-02 15:58:23.898,1302
2025-07-02 15:58:23.898,1284
2025-07-02 15:58:23.898,1317
2025-07-02 15:58:23.898,1449
2025-07-02 15:58:23.898,1439
2025-07-02 15:58:23.898,1577
2025-07-02 15:58:23.898,1699
2025-07-02 15:58:23.898,1796
2025-07-02 15:58:23.898,1758
2025-07-02 15:58:23.898,1975
2025-07-02 15:58:23.898,2278
2025-07-02 15:58:23.898,2116
2025-07-02 15:58:23.898,2271
2025-07-02 15:58:23.898,2375
2025-07-02 15:58:23.898,2424
2025-07-02 15:58:23.898,2439
2025-07-02 15:58:23.898,2219
2025-07-02 15:58:23.898,2021
2025-07-02 15:58:23.898,1604
2025-07-02 15:58:23.898,1686
2025-07-02 15:58:23.898,1481
2025-07-02 15:58:23.898,1445
2025-07-02 15:58:23.898,1455
2025-07-02 15:58:23.898,1497
2025-07-02 15:58:23.898,1565
2025-07-02 15:58:23.898,1523
2025-07-02 15:58:23.898,1757
2025-07-02 15:58:23.898,1619
2025-07-02 15:58:23.898,1619
2025-07-02 15:58:23.898,1598
2025-07-02 15:58:23.898,1614
2025-07-02 15:58:23.898,1589
2025-07-02 15:58:23.898,1636
2025-07-02 15:58:23.898,1714
2025-07-02 15:58:23.898,1663
2025-07-02 15:58:23.898,1626
2025-07-02 15:58:23.898,1700
2025-07-02 15:58:23.898,1710
2025-07-02 15:58:23.898,1449
2025-07-02 15:58:23.898,1534
2025-07-02 15:58:23.898,1611
2025-07-02 15:58:23.898,1640
2025-07-02 15:58:23.898,1575
2025-07-02 15:58:23.898,1672
2025-07-02 15:58:23.898,1669
2025-07-02 15:58:23.898,1697
2025-07-02 15:58:23.898,1585
2025-07-02 15:58:23.898,1700
2025-07-02 15:58:23.898,1679
2025-07-02 15:58:23.898,1715
2025-07-02 15:58:23.898,1670
2025-07-02 15:58:23.898,1836
2025-07-02 15:58:23.898,1633
2025-07-02 15:58:23.898,1707
2025-07-02 15:58:23.898,1756
2025-07-02 15:58:23.898,1728
2025-07-02 15:58:23.898,1983
2025-07-02 15:58:23.898,1658
2025-07-02 15:58:23.898,1754
2025-07-02 15:58:23.898,1798
2025-07-02 15:58:23.898,1871
2025-07-02 15:58:23.898,2023
2025-07-02 15:58:23.898,2221
2025-07-02 15:58:25.096,2233
2025-07-02 15:58:25.096,2284
2025-07-02 15:58:25.096,2096
2025-07-02 15:58:25.096,1804
2025-07-02 15:58:25.096,1661
2025-07-02 15:58:25.096,1552
2025-07-02 15:58:25.096,1584
2025-07-02 15:58:25.096,1614
2025-07-02 15:58:25.096,1742
2025-07-02 15:58:25.096,1478
2025-07-02 15:58:25.096,1314
2025-07-02 15:58:25.096,2211
2025-07-02 15:58:25.096,4235
2025-07-02 15:58:25.096,3752
2025-07-02 15:58:25.096,627
2025-07-02 15:58:25.096,706
2025-07-02 15:58:25.096,1299
2025-07-02 15:58:25.096,1374
2025-07-02 15:58:25.096,1422
2025-07-02 15:58:25.096,1418
2025-07-02 15:58:25.096,1571
2025-07-02 15:58:25.096,1618
2025-07-02 15:58:25.096,1691
2025-07-02 15:58:25.096,1771
2025-07-02 15:58:25.096,1646
2025-07-02 15:58:25.096,1785
2025-07-02 15:58:25.096,2019
2025-07-02 15:58:25.096,2074
2025-07-02 15:58:25.096,2148
2025-07-02 15:58:25.096,2288
2025-07-02 15:58:25.096,2359
2025-07-02 15:58:25.096,2161
2025-07-02 15:58:25.096,2150
2025-07-02 15:58:25.096,2093
2025-07-02 15:58:25.096,1833
2025-07-02 15:58:25.096,1530
2025-07-02 15:58:25.096,1378
2025-07-02 15:58:25.096,1385
2025-07-02 15:58:25.096,1299
2025-07-02 15:58:25.096,1434
2025-07-02 15:58:25.096,1375
2025-07-02 15:58:25.096,1379
2025-07-02 15:58:25.096,1360
2025-07-02 15:58:25.096,1383
2025-07-02 15:58:25.096,1399
2025-07-02 15:58:25.096,1571
2025-07-02 15:58:25.096,1385
2025-07-02 15:58:25.096,1421
2025-07-02 15:58:25.096,1602
2025-07-02 15:58:25.096,1369
2025-07-02 15:58:25.096,1463
2025-07-02 15:58:25.096,1518
2025-07-02 15:58:25.096,1495
2025-07-02 15:58:25.096,1479
2025-07-02 15:58:25.096,1511
2025-07-02 15:58:25.096,1535
2025-07-02 15:58:25.096,1525
2025-07-02 15:58:25.096,1423
2025-07-02 15:58:25.096,1431
2025-07-02 15:58:25.096,1561
2025-07-02 15:58:25.096,1579
2025-07-02 15:58:25.096,1514
2025-07-02 15:58:25.096,1521
2025-07-02 15:58:25.096,1583
2025-07-02 15:58:25.096,1598
2025-07-02 15:58:25.096,1617
2025-07-02 15:58:25.096,1511
2025-07-02 15:58:25.096,1661
2025-07-02 15:58:25.096,1609
2025-07-02 15:58:25.096,1661
2025-07-02 15:58:25.096,1720
2025-07-02 15:58:25.096,1726
2025-07-02 15:58:25.096,1797
2025-07-02 15:58:25.096,1651
2025-07-02 15:58:25.096,1948
2025-07-02 15:58:25.096,1980
2025-07-02 15:58:25.096,2098
2025-07-02 15:58:25.096,2220
2025-07-02 15:58:25.096,1976
2025-07-02 15:58:25.096,1889
2025-07-02 15:58:25.096,1720
2025-07-02 15:58:25.096,1669
2025-07-02 15:58:25.096,1589
2025-07-02 15:58:25.096,1570
2025-07-02 15:58:25.096,1658
2025-07-02 15:58:25.096,1683
2025-07-02 15:58:25.096,1522
2025-07-02 15:58:25.096,1766
2025-07-02 15:58:25.096,3634
2025-07-02 15:58:25.096,4058
2025-07-02 15:58:25.096,2020
2025-07-02 15:58:25.096,315
2025-07-02 15:58:25.096,1171
2025-07-02 15:58:25.096,1538
2025-07-02 15:58:25.096,1507
2025-07-02 15:58:25.096,1447
2025-07-02 15:58:25.096,1659
2025-07-02 15:58:25.096,1713
2025-07-02 15:58:25.096,1806
2025-07-02 15:58:25.096,1896
2025-07-02 15:58:25.096,1675
2025-07-02 15:58:25.096,1887
2025-07-02 15:58:25.096,2003
2025-07-02 15:58:25.096,2077
2025-07-02 15:58:25.096,2350
2025-07-02 15:58:25.096,2374
2025-07-02 15:58:25.096,2352
2025-07-02 15:58:25.096,2401
2025-07-02 15:58:25.096,2316
2025-07-02 15:58:25.096,2110
2025-07-02 15:58:25.096,1972
2025-07-02 15:58:25.096,1681
2025-07-02 15:58:25.096,1543
2025-07-02 15:58:25.096,1572
2025-07-02 15:58:25.096,1475
2025-07-02 15:58:25.096,1455
2025-07-02 15:58:25.096,1598
2025-07-02 15:58:25.096,1382
2025-07-02 15:58:25.096,1461
2025-07-02 15:58:25.096,1508
2025-07-02 15:58:25.096,1464
2025-07-02 15:58:25.096,1525
2025-07-02 15:58:25.096,1559
2025-07-02 15:58:25.096,1625
2025-07-02 15:58:25.096,1686
2025-07-02 15:58:25.096,1543
2025-07-02 15:58:25.096,1550
2025-07-02 15:58:25.096,1542
2025-07-02 15:58:25.096,1551
2025-07-02 15:58:25.096,1566
2025-07-02 15:58:25.096,1600
2025-07-02 15:58:25.096,1609
2025-07-02 15:58:25.096,1546
2025-07-02 15:58:25.096,1601
2025-07-02 15:58:25.096,1557
2025-07-02 15:58:25.096,1421
2025-07-02 15:58:25.096,1618
2025-07-02 15:58:25.096,1559
2025-07-02 15:58:25.096,1589
2025-07-02 15:58:25.096,1636
2025-07-02 15:58:25.096,1615
2025-07-02 15:58:25.096,1678
2025-07-02 15:58:25.096,1597
2025-07-02 15:58:25.096,1633
2025-07-02 15:58:25.096,1543
2025-07-02 15:58:25.096,1623
2025-07-02 15:58:25.096,1674
2025-07-02 15:58:25.096,1776
2025-07-02 15:58:25.096,1784
2025-07-02 15:58:25.096,1933
2025-07-02 15:58:25.096,1985
2025-07-02 15:58:25.096,1958
2025-07-02 15:58:25.096,1940
2025-07-02 15:58:25.096,1671
2025-07-02 15:58:25.096,1580
2025-07-02 15:58:25.096,1416
2025-07-02 15:58:25.096,1441
2025-07-02 15:58:25.096,1406
2025-07-02 15:58:25.096,1480
2025-07-02 15:58:25.096,1473
2025-07-02 15:58:25.096,1286
2025-07-02 15:58:25.096,1570
2025-07-02 15:58:25.096,3794
2025-07-02 15:58:25.096,3981
2025-07-02 15:58:25.096,1401
2025-07-02 15:58:25.096,351
2025-07-02 15:58:25.096,1062
2025-07-02 15:58:25.096,1377
2025-07-02 15:58:25.096,1360
2025-07-02 15:58:25.096,1362
2025-07-02 15:58:25.096,1392
2025-07-02 15:58:25.096,1492
2025-07-02 15:58:25.096,1609
2025-07-02 15:58:25.096,1719
2025-07-02 15:58:25.096,1610
2025-07-02 15:58:25.096,1707
2025-07-02 15:58:25.096,1813
2025-07-02 15:58:25.096,1945
2025-07-02 15:58:25.096,1956
2025-07-02 15:58:25.096,2125
2025-07-02 15:58:25.096,2269
2025-07-02 15:58:25.096,2198
2025-07-02 15:58:25.096,2087
2025-07-02 15:58:25.096,1772
2025-07-02 15:58:25.096,1635
2025-07-02 15:58:25.096,1477
2025-07-02 15:58:25.096,1306
2025-07-02 15:58:25.096,1426
2025-07-02 15:58:25.096,1194
2025-07-02 15:58:25.096,1232
2025-07-02 15:58:25.096,1153
2025-07-02 15:58:25.096,1196
2025-07-02 15:58:25.096,1169
2025-07-02 15:58:25.096,1311
2025-07-02 15:58:25.096,1282
2025-07-02 15:58:25.096,1340
2025-07-02 15:58:25.096,1413
2025-07-02 15:58:25.096,1241
2025-07-02 15:58:25.096,1254
2025-07-02 15:58:25.096,1394
2025-07-02 15:58:27.396,1355
2025-07-02 15:58:27.396,1346
2025-07-02 15:58:27.396,1434
2025-07-02 15:58:27.396,1279
2025-07-02 15:58:27.396,1324
2025-07-02 15:58:27.396,1255
2025-07-02 15:58:27.396,1368
2025-07-02 15:58:27.396,1397
2025-07-02 15:58:27.396,1411
2025-07-02 15:58:27.396,1453
2025-07-02 15:58:27.396,1264
2025-07-02 15:58:27.396,1352
2025-07-02 15:58:27.396,1404
2025-07-02 15:58:27.396,1396
2025-07-02 15:58:27.396,1420
2025-07-02 15:58:27.396,1543
2025-07-02 15:58:27.396,1559
2025-07-02 15:58:27.396,1677
2025-07-02 15:58:27.396,1646
2025-07-02 15:58:27.396,1750
2025-07-02 15:58:27.396,1809
2025-07-02 15:58:27.396,1661
2025-07-02 15:58:27.396,1583
2025-07-02 15:58:27.396,1344
2025-07-02 15:58:27.396,1354
2025-07-02 15:58:27.396,1326
2025-07-02 15:58:27.396,1326
2025-07-02 15:58:27.396,1212
2025-07-02 15:58:27.396,1281
2025-07-02 15:58:27.396,1052
2025-07-02 15:58:27.396,1853
2025-07-02 15:58:27.396,4169
2025-07-02 15:58:27.396,3681
2025-07-02 15:58:27.396,525
2025-07-02 15:58:27.396,431
2025-07-02 15:58:27.396,969
2025-07-02 15:58:27.396,1245
2025-07-02 15:58:27.396,1326
2025-07-02 15:58:27.396,1397
2025-07-02 15:58:27.396,1571
2025-07-02 15:58:27.396,1469
2025-07-02 15:58:27.396,1527
2025-07-02 15:58:27.396,1540
2025-07-02 15:58:27.396,1615
2025-07-02 15:58:27.396,1785
2025-07-02 15:58:27.396,1823
2025-07-02 15:58:27.396,2053
2025-07-02 15:58:27.396,2210
2025-07-02 15:58:27.396,1947
2025-07-02 15:58:27.396,2096
2025-07-02 15:58:27.396,2155
2025-07-02 15:58:27.396,2055
2025-07-02 15:58:27.396,1978
2025-07-02 15:58:27.396,1802
2025-07-02 15:58:27.396,1525
2025-07-02 15:58:27.396,1297
2025-07-02 15:58:27.396,1296
2025-07-02 15:58:27.396,1275
2025-07-02 15:58:27.396,1331
2025-07-02 15:58:27.396,1397
2025-07-02 15:58:27.396,1390
2025-07-02 15:58:27.396,1355
2025-07-02 15:58:27.396,1292
2025-07-02 15:58:27.396,1273
2025-07-02 15:58:27.396,1302
2025-07-02 15:58:27.396,1393
2025-07-02 15:58:27.396,1575
2025-07-02 15:58:27.396,1431
2025-07-02 15:58:27.396,1515
2025-07-02 15:58:27.396,1473
2025-07-02 15:58:27.396,1452
2025-07-02 15:58:27.396,1455
2025-07-02 15:58:27.396,1626
2025-07-02 15:58:27.396,1566
2025-07-02 15:58:27.396,1687
2025-07-02 15:58:27.396,1453
2025-07-02 15:58:27.396,1543
2025-07-02 15:58:27.396,1548
2025-07-02 15:58:27.396,1759
2025-07-02 15:58:27.396,1710
2025-07-02 15:58:27.396,2080
2025-07-02 15:58:27.396,2135
2025-07-02 15:58:27.396,1892
2025-07-02 15:58:27.396,1869
2025-07-02 15:58:27.396,1564
2025-07-02 15:58:27.396,1603
2025-07-02 15:58:27.396,1491
2025-07-02 15:58:27.396,1501
2025-07-02 15:58:27.396,1674
2025-07-02 15:58:27.396,1500
2025-07-02 15:58:27.396,1559
2025-07-02 15:58:27.396,1458
2025-07-02 15:58:27.396,3304
2025-07-02 15:58:27.396,4152
2025-07-02 15:58:27.396,2401
2025-07-02 15:58:27.396,353
2025-07-02 15:58:27.396,836
2025-07-02 15:58:27.396,1412
2025-07-02 15:58:27.396,1528
2025-07-02 15:58:27.396,1500
2025-07-02 15:58:27.396,1705
2025-07-02 15:58:27.396,1822
2025-07-02 15:58:27.396,1868
2025-07-02 15:58:27.396,1945
2025-07-02 15:58:27.396,2020
2025-07-02 15:58:27.396,1794
2025-07-02 15:58:27.396,2008
2025-07-02 15:58:27.396,2215
2025-07-02 15:58:27.396,2430
2025-07-02 15:58:27.396,2395
2025-07-02 15:58:27.396,2575
2025-07-02 15:58:27.396,2651
2025-07-02 15:58:27.396,2317
2025-07-02 15:58:27.396,2055
2025-07-02 15:58:27.396,1900
2025-07-02 15:58:27.396,1694
2025-07-02 15:58:27.396,1597
2025-07-02 15:58:27.396,1458
2025-07-02 15:58:27.396,1591
2025-07-02 15:58:27.396,1553
2025-07-02 15:58:27.396,1378
2025-07-02 15:58:27.396,1351
2025-07-02 15:58:27.396,1425
2025-07-02 15:58:27.396,1429
2025-07-02 15:58:27.396,1617
2025-07-02 15:58:27.396,1530
2025-07-02 15:58:27.396,1722
2025-07-02 15:58:27.396,1656
2025-07-02 15:58:27.396,1478
2025-07-02 15:58:27.396,1480
2025-07-02 15:58:27.396,1610
2025-07-02 15:58:27.396,1515
2025-07-02 15:58:27.396,1603
2025-07-02 15:58:27.396,1837
2025-07-02 15:58:27.396,1802
2025-07-02 15:58:27.396,2074
2025-07-02 15:58:27.396,2063
2025-07-02 15:58:27.396,1849
2025-07-02 15:58:27.396,1814
2025-07-02 15:58:27.396,1545
2025-07-02 15:58:27.396,1412
2025-07-02 15:58:27.396,1450
2025-07-02 15:58:27.396,1454
2025-07-02 15:58:27.396,1746
2025-07-02 15:58:27.396,1563
2025-07-02 15:58:27.396,1180
2025-07-02 15:58:27.396,1283
2025-07-02 15:58:27.396,2156
2025-07-02 15:58:27.396,4278
2025-07-02 15:58:27.396,3533
2025-07-02 15:58:27.396,459
2025-07-02 15:58:27.396,841
2025-07-02 15:58:27.396,1220
2025-07-02 15:58:27.396,1411
2025-07-02 15:58:27.396,1699
2025-07-02 15:58:27.396,1658
2025-07-02 15:58:27.396,1820
2025-07-02 15:58:27.396,1865
2025-07-02 15:58:27.396,1947
2025-07-02 15:58:27.396,1975
2025-07-02 15:58:27.396,2146
2025-07-02 15:58:27.396,2319
2025-07-02 15:58:27.396,2382
2025-07-02 15:58:27.396,2513
2025-07-02 15:58:27.396,2596
2025-07-02 15:58:27.396,2734
2025-07-02 15:58:27.396,2741
2025-07-02 15:58:27.396,2741
2025-07-02 15:58:27.396,2477
2025-07-02 15:58:27.396,2557
2025-07-02 15:58:27.396,2049
2025-07-02 15:58:27.396,1868
2025-07-02 15:58:27.396,2007
2025-07-02 15:58:27.396,1853
2025-07-02 15:58:27.396,1966
2025-07-02 15:58:27.396,1988
2025-07-02 15:58:27.396,1872
2025-07-02 15:58:27.396,1981
2025-07-02 15:58:27.396,2028
2025-07-02 15:58:27.396,2152
2025-07-02 15:58:27.396,2155
2025-07-02 15:58:27.396,2295
2025-07-02 15:58:27.396,2198
2025-07-02 15:58:27.396,2133
2025-07-02 15:58:27.396,2344
2025-07-02 15:58:27.396,2480
2025-07-02 15:58:27.396,2463
2025-07-02 15:58:27.396,2782
2025-07-02 15:58:27.396,2817
2025-07-02 15:58:27.396,2746
2025-07-02 15:58:27.396,2613
2025-07-02 15:58:27.396,2208
2025-07-02 15:58:27.396,2075
2025-07-02 15:58:27.396,2120
2025-07-02 15:58:27.396,2170
2025-07-02 15:58:27.396,2320
2025-07-02 15:58:27.396,2232
2025-07-02 15:58:27.396,2156
2025-07-02 15:58:27.396,2049
2025-07-02 15:58:27.396,2964
2025-07-02 15:58:30.183,4274
2025-07-02 15:58:30.183,3738
2025-07-02 15:58:30.183,925
2025-07-02 15:58:30.183,1328
2025-07-02 15:58:30.183,1893
2025-07-02 15:58:30.183,1971
2025-07-02 15:58:30.183,1979
2025-07-02 15:58:30.183,2051
2025-07-02 15:58:30.183,2165
2025-07-02 15:58:30.183,2265
2025-07-02 15:58:30.183,2449
2025-07-02 15:58:30.183,2362
2025-07-02 15:58:30.183,2482
2025-07-02 15:58:30.183,2494
2025-07-02 15:58:30.183,2554
2025-07-02 15:58:30.183,2760
2025-07-02 15:58:30.183,2841
2025-07-02 15:58:30.183,2993
2025-07-02 15:58:30.183,2981
2025-07-02 15:58:30.183,2826
2025-07-02 15:58:30.183,2604
2025-07-02 15:58:30.183,2269
2025-07-02 15:58:30.183,2080
2025-07-02 15:58:30.183,1939
2025-07-02 15:58:30.183,1876
2025-07-02 15:58:30.183,1844
2025-07-02 15:58:30.183,1692
2025-07-02 15:58:30.183,1613
2025-07-02 15:58:30.183,1770
2025-07-02 15:58:30.183,1649
2025-07-02 15:58:30.183,1685
2025-07-02 15:58:30.183,1672
2025-07-02 15:58:30.183,1624
2025-07-02 15:58:30.183,1714
2025-07-02 15:58:30.183,1649
2025-07-02 15:58:30.183,1625
2025-07-02 15:58:30.183,1643
2025-07-02 15:58:30.183,1482
2025-07-02 15:58:30.183,1680
2025-07-02 15:58:30.183,1724
2025-07-02 15:58:30.183,1783
2025-07-02 15:58:30.183,1958
2025-07-02 15:58:30.183,1680
2025-07-02 15:58:30.183,1623
2025-07-02 15:58:30.183,1410
2025-07-02 15:58:30.183,1124
2025-07-02 15:58:30.183,1016
2025-07-02 15:58:30.183,1049
2025-07-02 15:58:30.183,1186
2025-07-02 15:58:30.183,889
2025-07-02 15:58:30.183,1002
2025-07-02 15:58:30.183,694
2025-07-02 15:58:30.183,1174
2025-07-02 15:58:30.183,3772
2025-07-02 15:58:30.183,3835
2025-07-02 15:58:30.183,599
2025-07-02 15:58:30.183,145
2025-07-02 15:58:30.183,489
2025-07-02 15:58:30.183,825
2025-07-02 15:58:30.183,877
2025-07-02 15:58:30.183,947
2025-07-02 15:58:30.183,964
2025-07-02 15:58:30.183,1045
2025-07-02 15:58:30.183,1149
2025-07-02 15:58:30.183,1000
2025-07-02 15:58:30.183,1241
2025-07-02 15:58:30.183,1336
2025-07-02 15:58:30.183,1451
2025-07-02 15:58:30.183,1550
2025-07-02 15:58:30.183,1692
2025-07-02 15:58:30.183,1726
2025-07-02 15:58:30.183,1682
2025-07-02 15:58:30.183,1634
2025-07-02 15:58:30.183,1472
2025-07-02 15:58:30.183,1286
2025-07-02 15:58:30.183,1088
2025-07-02 15:58:30.183,899
2025-07-02 15:58:30.183,669
2025-07-02 15:58:30.183,620
2025-07-02 15:58:30.183,607
2025-07-02 15:58:30.183,743
2025-07-02 15:58:30.183,658
2025-07-02 15:58:30.183,835
2025-07-02 15:58:30.183,608
2025-07-02 15:58:30.183,761
2025-07-02 15:58:30.183,747
2025-07-02 15:58:30.183,842
2025-07-02 15:58:30.183,964
2025-07-02 15:58:30.183,780
2025-07-02 15:58:30.183,826
2025-07-02 15:58:30.183,877
2025-07-02 15:58:30.183,881
2025-07-02 15:58:30.183,811
2025-07-02 15:58:30.183,977
2025-07-02 15:58:30.183,867
2025-07-02 15:58:30.183,839
2025-07-02 15:58:30.183,856
2025-07-02 15:58:30.183,815
2025-07-02 15:58:30.183,950
2025-07-02 15:58:30.183,849
2025-07-02 15:58:30.183,810
2025-07-02 15:58:30.183,1025
2025-07-02 15:58:30.183,1094
2025-07-02 15:58:30.183,1328
2025-07-02 15:58:30.183,1631
2025-07-02 15:58:30.183,1300
2025-07-02 15:58:30.183,1332
2025-07-02 15:58:30.183,1026
2025-07-02 15:58:30.183,849
2025-07-02 15:58:30.183,957
2025-07-02 15:58:30.183,905
2025-07-02 15:58:30.183,790
2025-07-02 15:58:30.183,903
2025-07-02 15:58:30.183,899
2025-07-02 15:58:30.183,791
2025-07-02 15:58:30.183,1083
2025-07-02 15:58:30.183,3490
2025-07-02 15:58:30.183,4014
2025-07-02 15:58:30.183,1155
2025-07-02 15:58:30.183,17
2025-07-02 15:58:30.183,515
2025-07-02 15:58:30.183,1007
2025-07-02 15:58:30.183,908
2025-07-02 15:58:30.183,1063
2025-07-02 15:58:30.183,1163
2025-07-02 15:58:30.183,1260
2025-07-02 15:58:30.183,1296
2025-07-02 15:58:30.183,1389
2025-07-02 15:58:30.183,1368
2025-07-02 15:58:30.183,1484
2025-07-02 15:58:30.183,1744
2025-07-02 15:58:30.183,1624
2025-07-02 15:58:30.183,1852
2025-07-02 15:58:30.183,1953
2025-07-02 15:58:30.183,2022
2025-07-02 15:58:30.183,2066
2025-07-02 15:58:30.183,2026
2025-07-02 15:58:30.183,1863
2025-07-02 15:58:30.183,1516
2025-07-02 15:58:30.183,1331
2025-07-02 15:58:30.183,1198
2025-07-02 15:58:30.183,1130
2025-07-02 15:58:30.183,1222
2025-07-02 15:58:30.183,1218
2025-07-02 15:58:30.183,1227
2025-07-02 15:58:30.183,1122
2025-07-02 15:58:30.183,1277
2025-07-02 15:58:30.183,1268
2025-07-02 15:58:30.183,1392
2025-07-02 15:58:30.183,1381
2025-07-02 15:58:30.183,1354
2025-07-02 15:58:30.183,1283
2025-07-02 15:58:30.183,1421
2025-07-02 15:58:30.183,1361
2025-07-02 15:58:30.183,1510
2025-07-02 15:58:30.183,1425
2025-07-02 15:58:30.183,1422
2025-07-02 15:58:30.183,1394
2025-07-02 15:58:30.183,1361
2025-07-02 15:58:30.183,1411
2025-07-02 15:58:30.183,1499
2025-07-02 15:58:30.183,1392
2025-07-02 15:58:30.183,1543
2025-07-02 15:58:30.183,1527
2025-07-02 15:58:30.183,1490
2025-07-02 15:58:30.183,1478
2025-07-02 15:58:30.183,1453
2025-07-02 15:58:30.183,1462
2025-07-02 15:58:30.183,1635
2025-07-02 15:58:30.183,1466
2025-07-02 15:58:30.183,1593
2025-07-02 15:58:30.183,1660
2025-07-02 15:58:30.183,1640
2025-07-02 15:58:30.183,1585
2025-07-02 15:58:30.183,1555
2025-07-02 15:58:30.183,1625
2025-07-02 15:58:30.183,1702
2025-07-02 15:58:30.183,1712
2025-07-02 15:58:30.183,1594
2025-07-02 15:58:30.183,1597
2025-07-02 15:58:30.183,1659
2025-07-02 15:58:30.183,1650
2025-07-02 15:58:30.183,1776
2025-07-02 15:58:30.183,1855
2025-07-02 15:58:30.183,2004
2025-07-02 15:58:30.183,2066
2025-07-02 15:58:30.183,1948
2025-07-02 15:58:30.183,1996
2025-07-02 15:58:30.183,1872
2025-07-02 15:58:30.183,1687
2025-07-02 15:58:30.183,1718
2025-07-02 15:58:30.183,1705
2025-07-02 15:58:30.183,1722
2025-07-02 15:58:30.183,1587
2025-07-02 15:58:30.183,1689
2025-07-02 15:58:30.183,1603
2025-07-02 15:58:30.183,1516
2025-07-02 15:58:30.183,2644
2025-07-02 15:58:30.183,4321
2025-07-02 15:58:30.183,3359
2025-07-02 15:58:32.515,151
2025-07-02 15:58:32.515,1095
2025-07-02 15:58:32.515,1515
2025-07-02 15:58:32.515,1482
2025-07-02 15:58:32.515,1430
2025-07-02 15:58:32.515,1576
2025-07-02 15:58:32.515,1581
2025-07-02 15:58:32.515,1639
2025-07-02 15:58:32.515,1775
2025-07-02 15:58:32.515,1958
2025-07-02 15:58:32.515,1842
2025-07-02 15:58:32.515,1945
2025-07-02 15:58:32.515,1968
2025-07-02 15:58:32.515,2186
2025-07-02 15:58:32.515,2251
2025-07-02 15:58:32.515,2384
2025-07-02 15:58:32.515,2500
2025-07-02 15:58:32.515,2408
2025-07-02 15:58:32.515,2153
2025-07-02 15:58:32.515,2105
2025-07-02 15:58:32.515,1762
2025-07-02 15:58:32.515,1674
2025-07-02 15:58:32.515,1536
2025-07-02 15:58:32.515,1455
2025-07-02 15:58:32.515,1475
2025-07-02 15:58:32.515,1470
2025-07-02 15:58:32.515,1414
2025-07-02 15:58:32.515,1517
2025-07-02 15:58:32.515,1586
2025-07-02 15:58:32.515,1566
2025-07-02 15:58:32.515,1546
2025-07-02 15:58:32.515,1636
2025-07-02 15:58:32.515,1512
2025-07-02 15:58:32.515,1606
2025-07-02 15:58:32.515,1625
2025-07-02 15:58:32.515,1628
2025-07-02 15:58:32.515,1622
2025-07-02 15:58:32.515,1708
2025-07-02 15:58:32.515,1389
2025-07-02 15:58:32.515,1601
2025-07-02 15:58:32.515,1601
2025-07-02 15:58:32.515,1653
2025-07-02 15:58:32.515,1664
2025-07-02 15:58:32.515,1676
2025-07-02 15:58:32.515,1490
2025-07-02 15:58:32.515,1538
2025-07-02 15:58:32.515,1541
2025-07-02 15:58:32.515,1632
2025-07-02 15:58:32.515,1711
2025-07-02 15:58:32.515,1728
2025-07-02 15:58:32.515,1693
2025-07-02 15:58:32.515,1516
2025-07-02 15:58:32.515,1584
2025-07-02 15:58:32.515,1682
2025-07-02 15:58:32.515,1657
2025-07-02 15:58:32.515,1710
2025-07-02 15:58:32.515,1778
2025-07-02 15:58:32.515,1744
2025-07-02 15:58:32.515,1694
2025-07-02 15:58:32.515,1818
2025-07-02 15:58:32.515,1875
2025-07-02 15:58:32.515,2154
2025-07-02 15:58:32.515,2061
2025-07-02 15:58:32.515,2027
2025-07-02 15:58:32.515,1923
2025-07-02 15:58:32.515,1769
2025-07-02 15:58:32.515,1703
2025-07-02 15:58:32.515,1705
2025-07-02 15:58:32.515,1596
2025-07-02 15:58:32.515,1718
2025-07-02 15:58:32.515,1651
2025-07-02 15:58:32.515,1601
2025-07-02 15:58:32.515,1528
2025-07-02 15:58:32.515,1987
2025-07-02 15:58:32.515,3800
2025-07-02 15:58:32.515,4008
2025-07-02 15:58:32.515,1681
2025-07-02 15:58:32.515,330
2025-07-02 15:58:32.515,1316
2025-07-02 15:58:32.515,1500
2025-07-02 15:58:32.515,1554
2025-07-02 15:58:32.515,1591
2025-07-02 15:58:32.515,1605
2025-07-02 15:58:32.515,1750
2025-07-02 15:58:32.515,1673
2025-07-02 15:58:32.515,1827
2025-07-02 15:58:32.515,1964
2025-07-02 15:58:32.515,1950
2025-07-02 15:58:32.515,2186
2025-07-02 15:58:32.515,2197
2025-07-02 15:58:32.515,2216
2025-07-02 15:58:32.515,2411
2025-07-02 15:58:32.515,2507
2025-07-02 15:58:32.515,2455
2025-07-02 15:58:32.515,2449
2025-07-02 15:58:32.515,2245
2025-07-02 15:58:32.515,2143
2025-07-02 15:58:32.515,1713
2025-07-02 15:58:32.515,1594
2025-07-02 15:58:32.515,1609
2025-07-02 15:58:32.515,1566
2025-07-02 15:58:32.515,1679
2025-07-02 15:58:32.515,1512
2025-07-02 15:58:32.515,1548
2025-07-02 15:58:32.515,1571
2025-07-02 15:58:32.515,1590
2025-07-02 15:58:32.515,1661
2025-07-02 15:58:32.515,1795
2025-07-02 15:58:32.515,1650
2025-07-02 15:58:32.515,1726
2025-07-02 15:58:32.515,1664
2025-07-02 15:58:32.515,1707
2025-07-02 15:58:32.515,1706
2025-07-02 15:58:32.515,1766
2025-07-02 15:58:32.515,1768
2025-07-02 15:58:32.515,1719
2025-07-02 15:58:32.515,1762
2025-07-02 15:58:32.515,1788
2025-07-02 15:58:32.515,1609
2025-07-02 15:58:32.515,1697
2025-07-02 15:58:32.515,1744
2025-07-02 15:58:32.515,1685
2025-07-02 15:58:32.515,1712
2025-07-02 15:58:32.515,1822
2025-07-02 15:58:32.515,1712
2025-07-02 15:58:32.515,1722
2025-07-02 15:58:32.515,1792
2025-07-02 15:58:32.515,1680
2025-07-02 15:58:32.515,1725
2025-07-02 15:58:32.515,1752
2025-07-02 15:58:32.515,1878
2025-07-02 15:58:32.515,1750
2025-07-02 15:58:32.515,1753
2025-07-02 15:58:32.515,1679
2025-07-02 15:58:32.515,1768
2025-07-02 15:58:32.515,1756
2025-07-02 15:58:32.515,1908
2025-07-02 15:58:32.515,1983
2025-07-02 15:58:32.515,2012
2025-07-02 15:58:32.515,2158
2025-07-02 15:58:32.515,2099
2025-07-02 15:58:32.515,1892
2025-07-02 15:58:32.515,1806
2025-07-02 15:58:32.515,1593
2025-07-02 15:58:32.515,1551
2025-07-02 15:58:32.515,1549
2025-07-02 15:58:32.515,1607
2025-07-02 15:58:32.515,1615
2025-07-02 15:58:32.515,1656
2025-07-02 15:58:32.515,1370
2025-07-02 15:58:32.515,1967
2025-07-02 15:58:32.515,3876
2025-07-02 15:58:32.515,3981
2025-07-02 15:58:32.515,1514
2025-07-02 15:58:32.515,398
2025-07-02 15:58:32.515,1234
2025-07-02 15:58:32.515,1652
2025-07-02 15:58:32.515,1414
2025-07-02 15:58:32.515,1468
2025-07-02 15:58:32.515,1493
2025-07-02 15:58:32.515,1682
2025-07-02 15:58:32.515,1734
2025-07-02 15:58:32.515,1912
2025-07-02 15:58:32.515,1777
2025-07-02 15:58:32.515,1832
2025-07-02 15:58:32.515,1955
2025-07-02 15:58:32.515,2080
2025-07-02 15:58:32.515,2263
2025-07-02 15:58:32.515,2331
2025-07-02 15:58:32.515,2378
2025-07-02 15:58:32.515,2342
2025-07-02 15:58:32.515,2172
2025-07-02 15:58:32.515,2049
2025-07-02 15:58:32.515,1831
2025-07-02 15:58:32.515,1749
2025-07-02 15:58:32.515,1769
2025-07-02 15:58:32.515,1226
2025-07-02 15:58:32.515,1403
2025-07-02 15:58:32.515,1356
2025-07-02 15:58:32.515,1384
2025-07-02 15:58:32.515,1441
2025-07-02 15:58:32.515,1494
2025-07-02 15:58:32.515,1691
2025-07-02 15:58:32.515,1445
2025-07-02 15:58:32.515,1496
2025-07-02 15:58:32.515,1538
2025-07-02 15:58:32.515,1530
2025-07-02 15:58:32.515,1599
2025-07-02 15:58:32.515,1607
2025-07-02 15:58:32.515,1574
2025-07-02 15:58:32.515,1611
2025-07-02 15:58:32.515,1594
2025-07-02 15:58:32.515,1588
2025-07-02 15:58:32.515,1517
2025-07-02 15:58:32.515,1604
2025-07-02 15:58:32.515,1598
2025-07-02 15:58:32.515,1482
2025-07-02 15:58:32.515,1588
2025-07-02 15:58:32.515,1666
2025-07-02 15:58:32.515,1533
2025-07-02 15:58:35.297,1660
2025-07-02 15:58:35.297,1698
2025-07-02 15:58:35.297,1326
2025-07-02 15:58:35.297,1618
2025-07-02 15:58:35.297,1596
2025-07-02 15:58:35.297,1607
2025-07-02 15:58:35.297,1721
2025-07-02 15:58:35.297,1521
2025-07-02 15:58:35.297,1766
2025-07-02 15:58:35.297,1585
2025-07-02 15:58:35.297,1582
2025-07-02 15:58:35.297,1773
2025-07-02 15:58:35.297,1792
2025-07-02 15:58:35.297,1923
2025-07-02 15:58:35.297,2057
2025-07-02 15:58:35.297,2005
2025-07-02 15:58:35.297,1877
2025-07-02 15:58:35.297,1648
2025-07-02 15:58:35.297,1571
2025-07-02 15:58:35.297,1499
2025-07-02 15:58:35.297,1509
2025-07-02 15:58:35.297,1589
2025-07-02 15:58:35.297,1616
2025-07-02 15:58:35.297,1573
2025-07-02 15:58:35.297,1363
2025-07-02 15:58:35.297,1781
2025-07-02 15:58:35.297,4056
2025-07-02 15:58:35.297,3888
2025-07-02 15:58:35.297,1217
2025-07-02 15:58:35.297,446
2025-07-02 15:58:35.297,1158
2025-07-02 15:58:35.297,1492
2025-07-02 15:58:35.297,1432
2025-07-02 15:58:35.297,1648
2025-07-02 15:58:35.297,1528
2025-07-02 15:58:35.297,1641
2025-07-02 15:58:35.297,1647
2025-07-02 15:58:35.297,1707
2025-07-02 15:58:35.297,1819
2025-07-02 15:58:35.297,1921
2025-07-02 15:58:35.297,2083
2025-07-02 15:58:35.297,2211
2025-07-02 15:58:35.297,2213
2025-07-02 15:58:35.297,2313
2025-07-02 15:58:35.297,2331
2025-07-02 15:58:35.297,2321
2025-07-02 15:58:35.297,2272
2025-07-02 15:58:35.297,2203
2025-07-02 15:58:35.297,2015
2025-07-02 15:58:35.297,1698
2025-07-02 15:58:35.297,1595
2025-07-02 15:58:35.297,1488
2025-07-02 15:58:35.297,1548
2025-07-02 15:58:35.297,1415
2025-07-02 15:58:35.297,1518
2025-07-02 15:58:35.297,1663
2025-07-02 15:58:35.297,1656
2025-07-02 15:58:35.297,1596
2025-07-02 15:58:35.297,1656
2025-07-02 15:58:35.297,1532
2025-07-02 15:58:35.297,1515
2025-07-02 15:58:35.297,1649
2025-07-02 15:58:35.297,1695
2025-07-02 15:58:35.297,1744
2025-07-02 15:58:35.297,1729
2025-07-02 15:58:35.297,1695
2025-07-02 15:58:35.297,1577
2025-07-02 15:58:35.297,1580
2025-07-02 15:58:35.297,1613
2025-07-02 15:58:35.297,1575
2025-07-02 15:58:35.297,1657
2025-07-02 15:58:35.297,1705
2025-07-02 15:58:35.297,1433
2025-07-02 15:58:35.297,1555
2025-07-02 15:58:35.297,1693
2025-07-02 15:58:35.297,1652
2025-07-02 15:58:35.297,1695
2025-07-02 15:58:35.297,1560
2025-07-02 15:58:35.297,1651
2025-07-02 15:58:35.297,1560
2025-07-02 15:58:35.297,1631
2025-07-02 15:58:35.297,1728
2025-07-02 15:58:35.297,1664
2025-07-02 15:58:35.297,1745
2025-07-02 15:58:35.297,1890
2025-07-02 15:58:35.297,1978
2025-07-02 15:58:35.297,1915
2025-07-02 15:58:35.297,1960
2025-07-02 15:58:35.297,1878
2025-07-02 15:58:35.297,1706
2025-07-02 15:58:35.297,1603
2025-07-02 15:58:35.297,1499
2025-07-02 15:58:35.297,1540
2025-07-02 15:58:35.297,1501
2025-07-02 15:58:35.297,1520
2025-07-02 15:58:35.297,1433
2025-07-02 15:58:35.297,1476
2025-07-02 15:58:35.297,3277
2025-07-02 15:58:35.297,4157
2025-07-02 15:58:35.297,2492
2025-07-02 15:58:35.297,293
2025-07-02 15:58:35.297,851
2025-07-02 15:58:35.297,1378
2025-07-02 15:58:35.297,1463
2025-07-02 15:58:35.297,1558
2025-07-02 15:58:35.297,1642
2025-07-02 15:58:35.297,1634
2025-07-02 15:58:35.297,1711
2025-07-02 15:58:35.297,1809
2025-07-02 15:58:35.297,1788
2025-07-02 15:58:35.297,1932
2025-07-02 15:58:35.297,1982
2025-07-02 15:58:35.297,2125
2025-07-02 15:58:35.297,2133
2025-07-02 15:58:35.297,2300
2025-07-02 15:58:35.297,2410
2025-07-02 15:58:35.297,2360
2025-07-02 15:58:35.297,2421
2025-07-02 15:58:35.297,2109
2025-07-02 15:58:35.297,1972
2025-07-02 15:58:35.297,1683
2025-07-02 15:58:35.297,1631
2025-07-02 15:58:35.297,1417
2025-07-02 15:58:35.297,1472
2025-07-02 15:58:35.297,1449
2025-07-02 15:58:35.297,1491
2025-07-02 15:58:35.297,1506
2025-07-02 15:58:35.297,1371
2025-07-02 15:58:35.297,1447
2025-07-02 15:58:35.297,1394
2025-07-02 15:58:35.297,1463
2025-07-02 15:58:35.297,1568
2025-07-02 15:58:35.297,1633
2025-07-02 15:58:35.297,1520
2025-07-02 15:58:35.297,1612
2025-07-02 15:58:35.297,1541
2025-07-02 15:58:35.297,1643
2025-07-02 15:58:35.297,1407
2025-07-02 15:58:35.297,1572
2025-07-02 15:58:35.297,1566
2025-07-02 15:58:35.297,1429
2025-07-02 15:58:35.297,1483
2025-07-02 15:58:35.297,1524
2025-07-02 15:58:35.297,1589
2025-07-02 15:58:35.297,1642
2025-07-02 15:58:35.297,1591
2025-07-02 15:58:35.297,1504
2025-07-02 15:58:35.297,1573
2025-07-02 15:58:35.297,1507
2025-07-02 15:58:35.297,1678
2025-07-02 15:58:35.297,1810
2025-07-02 15:58:35.297,2006
2025-07-02 15:58:35.297,2080
2025-07-02 15:58:35.297,2020
2025-07-02 15:58:35.297,1694
2025-07-02 15:58:35.297,1480
2025-07-02 15:58:35.297,1395
2025-07-02 15:58:35.297,1494
2025-07-02 15:58:35.297,1490
2025-07-02 15:58:35.297,1613
2025-07-02 15:58:35.297,1488
2025-07-02 15:58:35.297,1323
2025-07-02 15:58:35.297,1768
2025-07-02 15:58:35.297,4062
2025-07-02 15:58:35.297,3793
2025-07-02 15:58:35.297,1032
2025-07-02 15:58:35.297,557
2025-07-02 15:58:35.297,1117
2025-07-02 15:58:35.297,1357
2025-07-02 15:58:35.297,1410
2025-07-02 15:58:35.297,1585
2025-07-02 15:58:35.297,1589
2025-07-02 15:58:35.297,1649
2025-07-02 15:58:35.297,1840
2025-07-02 15:58:35.297,1668
2025-07-02 15:58:35.297,1831
2025-07-02 15:58:35.297,1902
2025-07-02 15:58:35.297,1997
2025-07-02 15:58:35.297,2111
2025-07-02 15:58:35.297,2342
2025-07-02 15:58:35.297,2350
2025-07-02 15:58:35.297,2397
2025-07-02 15:58:35.297,2239
2025-07-02 15:58:35.297,2186
2025-07-02 15:58:35.297,2165
2025-07-02 15:58:35.297,1749
2025-07-02 15:58:35.297,1540
2025-07-02 15:58:35.297,1429
2025-07-02 15:58:35.297,1389
2025-07-02 15:58:35.297,1327
2025-07-02 15:58:35.297,1301
2025-07-02 15:58:35.297,1354
2025-07-02 15:58:35.297,1320
2025-07-02 15:58:35.297,1395
2025-07-02 15:58:35.297,1291
2025-07-02 15:58:35.297,1477
2025-07-02 15:58:35.297,1455
2025-07-02 15:58:35.297,1330
2025-07-02 15:58:35.297,1529
2025-07-02 15:58:35.297,1465
2025-07-02 15:58:37.661,1422
2025-07-02 15:58:37.661,1528
2025-07-02 15:58:37.661,1530
2025-07-02 15:58:37.661,1421
2025-07-02 15:58:37.661,1585
2025-07-02 15:58:37.661,1602
2025-07-02 15:58:37.661,1480
2025-07-02 15:58:37.661,1495
2025-07-02 15:58:37.661,1737
2025-07-02 15:58:37.661,1701
2025-07-02 15:58:37.661,1721
2025-07-02 15:58:37.661,2025
2025-07-02 15:58:37.661,2150
2025-07-02 15:58:37.661,1998
2025-07-02 15:58:37.661,1634
2025-07-02 15:58:37.661,1524
2025-07-02 15:58:37.661,1480
2025-07-02 15:58:37.661,1525
2025-07-02 15:58:37.661,1554
2025-07-02 15:58:37.661,1652
2025-07-02 15:58:37.661,1351
2025-07-02 15:58:37.661,1377
2025-07-02 15:58:37.661,1765
2025-07-02 15:58:37.661,4015
2025-07-02 15:58:37.661,3845
2025-07-02 15:58:37.661,1186
2025-07-02 15:58:37.661,373
2025-07-02 15:58:37.661,1112
2025-07-02 15:58:37.661,1346
2025-07-02 15:58:37.661,1377
2025-07-02 15:58:37.661,1528
2025-07-02 15:58:37.661,1459
2025-07-02 15:58:37.661,1582
2025-07-02 15:58:37.661,1708
2025-07-02 15:58:37.661,1757
2025-07-02 15:58:37.661,1799
2025-07-02 15:58:37.661,1840
2025-07-02 15:58:37.661,2036
2025-07-02 15:58:37.661,1978
2025-07-02 15:58:37.661,2171
2025-07-02 15:58:37.661,2285
2025-07-02 15:58:37.661,2311
2025-07-02 15:58:37.661,2340
2025-07-02 15:58:37.661,2247
2025-07-02 15:58:37.661,1836
2025-07-02 15:58:37.661,1830
2025-07-02 15:58:37.661,1356
2025-07-02 15:58:37.661,1417
2025-07-02 15:58:37.661,1359
2025-07-02 15:58:37.661,1318
2025-07-02 15:58:37.661,1263
2025-07-02 15:58:37.661,1289
2025-07-02 15:58:37.661,1255
2025-07-02 15:58:37.661,1411
2025-07-02 15:58:37.661,1359
2025-07-02 15:58:37.661,1486
2025-07-02 15:58:37.661,1337
2025-07-02 15:58:37.661,1436
2025-07-02 15:58:37.661,1419
2025-07-02 15:58:37.661,1500
2025-07-02 15:58:37.661,1462
2025-07-02 15:58:37.661,1482
2025-07-02 15:58:37.661,1472
2025-07-02 15:58:37.661,1458
2025-07-02 15:58:37.661,1463
2025-07-02 15:58:37.661,1470
2025-07-02 15:58:37.661,1565
2025-07-02 15:58:37.661,1532
2025-07-02 15:58:37.661,1625
2025-07-02 15:58:37.661,1798
2025-07-02 15:58:37.661,1828
2025-07-02 15:58:37.661,1931
2025-07-02 15:58:37.661,1849
2025-07-02 15:58:37.661,1817
2025-07-02 15:58:37.661,1629
2025-07-02 15:58:37.661,1478
2025-07-02 15:58:37.661,1451
2025-07-02 15:58:37.661,1460
2025-07-02 15:58:37.661,1325
2025-07-02 15:58:37.661,1344
2025-07-02 15:58:37.661,1251
2025-07-02 15:58:37.661,1243
2025-07-02 15:58:37.661,1917
2025-07-02 15:58:37.661,4251
2025-07-02 15:58:37.661,3636
2025-07-02 15:58:37.661,300
2025-07-02 15:58:37.661,424
2025-07-02 15:58:37.661,1083
2025-07-02 15:58:37.661,1254
2025-07-02 15:58:37.661,1371
2025-07-02 15:58:37.661,1513
2025-07-02 15:58:37.661,1593
2025-07-02 15:58:37.661,1406
2025-07-02 15:58:37.661,1571
2025-07-02 15:58:37.661,1629
2025-07-02 15:58:37.661,1793
2025-07-02 15:58:37.661,1826
2025-07-02 15:58:37.661,2103
2025-07-02 15:58:37.661,2145
2025-07-02 15:58:37.661,2102
2025-07-02 15:58:37.661,2279
2025-07-02 15:58:37.661,2276
2025-07-02 15:58:37.661,2291
2025-07-02 15:58:37.661,2202
2025-07-02 15:58:37.661,1929
2025-07-02 15:58:37.661,1690
2025-07-02 15:58:37.661,1354
2025-07-02 15:58:37.661,1436
2025-07-02 15:58:37.661,1307
2025-07-02 15:58:37.661,1280
2025-07-02 15:58:37.661,1470
2025-07-02 15:58:37.661,1161
2025-07-02 15:58:37.661,1249
2025-07-02 15:58:37.661,1414
2025-07-02 15:58:37.661,1434
2025-07-02 15:58:37.661,1386
2025-07-02 15:58:37.661,1460
2025-07-02 15:58:37.661,1587
2025-07-02 15:58:37.661,1431
2025-07-02 15:58:37.661,1436
2025-07-02 15:58:37.661,1534
2025-07-02 15:58:37.661,1417
2025-07-02 15:58:37.661,1514
2025-07-02 15:58:37.661,1576
2025-07-02 15:58:37.661,1568
2025-07-02 15:58:37.661,1539
2025-07-02 15:58:37.661,1551
2025-07-02 15:58:37.661,1512
2025-07-02 15:58:37.661,1570
2025-07-02 15:58:37.661,1787
2025-07-02 15:58:37.661,1816
2025-07-02 15:58:37.661,2201
2025-07-02 15:58:37.661,2106
2025-07-02 15:58:37.661,1976
2025-07-02 15:58:37.661,1579
2025-07-02 15:58:37.661,1500
2025-07-02 15:58:37.661,1410
2025-07-02 15:58:37.661,1480
2025-07-02 15:58:37.661,1599
2025-07-02 15:58:37.661,1453
2025-07-02 15:58:37.661,1428
2025-07-02 15:58:37.661,1281
2025-07-02 15:58:37.661,1295
2025-07-02 15:58:37.661,2972
2025-07-02 15:58:37.661,4250
2025-07-02 15:58:37.661,2911
2025-07-02 15:58:37.661,-318
2025-07-02 15:58:37.661,811
2025-07-02 15:58:37.661,1282
2025-07-02 15:58:37.661,1351
2025-07-02 15:58:37.661,1393
2025-07-02 15:58:37.661,1520
2025-07-02 15:58:37.661,1819
2025-07-02 15:58:37.661,1459
2025-07-02 15:58:37.661,1531
2025-07-02 15:58:37.661,1662
2025-07-02 15:58:37.661,1811
2025-07-02 15:58:37.661,1967
2025-07-02 15:58:37.661,2055
2025-07-02 15:58:37.661,2175
2025-07-02 15:58:37.661,2200
2025-07-02 15:58:37.661,2312
2025-07-02 15:58:37.661,2383
2025-07-02 15:58:37.661,2341
2025-07-02 15:58:37.661,2302
2025-07-02 15:58:37.661,1818
2025-07-02 15:58:37.661,1593
2025-07-02 15:58:37.661,1384
2025-07-02 15:58:37.661,1436
2025-07-02 15:58:37.661,1357
2025-07-02 15:58:37.661,1355
2025-07-02 15:58:37.661,1469
2025-07-02 15:58:37.661,1518
2025-07-02 15:58:37.661,1263
2025-07-02 15:58:37.661,1455
2025-07-02 15:58:37.661,1506
2025-07-02 15:58:37.661,1568
2025-07-02 15:58:37.661,1483
2025-07-02 15:58:37.661,1557
2025-07-02 15:58:37.661,1524
2025-07-02 15:58:37.661,1480
2025-07-02 15:58:37.661,1527
2025-07-02 15:58:37.661,1602
2025-07-02 15:58:37.661,1586
2025-07-02 15:58:37.661,1627
2025-07-02 15:58:37.661,1798
2025-07-02 15:58:37.661,1428
2025-07-02 15:58:37.661,1529
2025-07-02 15:58:37.661,1507
2025-07-02 15:58:37.661,1628
2025-07-02 15:58:37.661,1676
2025-07-02 15:58:37.661,1597
2025-07-02 15:58:37.661,1610
2025-07-02 15:58:37.661,1650
2025-07-02 15:58:37.661,1719
2025-07-02 15:58:37.661,1515
2025-07-02 15:58:37.661,1693
2025-07-02 15:58:37.661,1650
2025-07-02 15:58:37.661,1743
2025-07-02 15:58:37.661,2050
2025-07-02 15:58:40.265,1850
2025-07-02 15:58:40.265,2159
2025-07-02 15:58:40.265,2173
2025-07-02 15:58:40.265,2045
2025-07-02 15:58:40.265,1842
2025-07-02 15:58:40.265,1718
2025-07-02 15:58:40.265,1357
2025-07-02 15:58:40.265,1489
2025-07-02 15:58:40.265,1631
2025-07-02 15:58:40.265,1445
2025-07-02 15:58:40.265,1600
2025-07-02 15:58:40.265,1514
2025-07-02 15:58:40.265,1440
2025-07-02 15:58:40.265,3454
2025-07-02 15:58:40.265,4112
2025-07-02 15:58:40.265,2125
2025-07-02 15:58:40.265,48
2025-07-02 15:58:40.265,1157
2025-07-02 15:58:40.265,1347
2025-07-02 15:58:40.265,1298
2025-07-02 15:58:40.265,1526
2025-07-02 15:58:40.265,1412
2025-07-02 15:58:40.265,1623
2025-07-02 15:58:40.265,1664
2025-07-02 15:58:40.265,1676
2025-07-02 15:58:40.265,1789
2025-07-02 15:58:40.265,1791
2025-07-02 15:58:40.265,2000
2025-07-02 15:58:40.265,2019
2025-07-02 15:58:40.265,2233
2025-07-02 15:58:40.265,2368
2025-07-02 15:58:40.265,2283
2025-07-02 15:58:40.265,2398
2025-07-02 15:58:40.265,2261
2025-07-02 15:58:40.265,2153
2025-07-02 15:58:40.265,2019
2025-07-02 15:58:40.265,1628
2025-07-02 15:58:40.265,1519
2025-07-02 15:58:40.265,1540
2025-07-02 15:58:40.265,1311
2025-07-02 15:58:40.265,1380
2025-07-02 15:58:40.265,1502
2025-07-02 15:58:40.265,1469
2025-07-02 15:58:40.265,1394
2025-07-02 15:58:40.265,1520
2025-07-02 15:58:40.265,1461
2025-07-02 15:58:40.265,1497
2025-07-02 15:58:40.265,1544
2025-07-02 15:58:40.265,1682
2025-07-02 15:58:40.265,1479
2025-07-02 15:58:40.265,1598
2025-07-02 15:58:40.265,1479
2025-07-02 15:58:40.265,1535
2025-07-02 15:58:40.265,1599
2025-07-02 15:58:40.265,1575
2025-07-02 15:58:40.265,1553
2025-07-02 15:58:40.265,1386
2025-07-02 15:58:40.265,1531
2025-07-02 15:58:40.265,1531
2025-07-02 15:58:40.265,1474
2025-07-02 15:58:40.265,1693
2025-07-02 15:58:40.265,1559
2025-07-02 15:58:40.265,1459
2025-07-02 15:58:40.265,1615
2025-07-02 15:58:40.265,1521
2025-07-02 15:58:40.265,1531
2025-07-02 15:58:40.265,1712
2025-07-02 15:58:40.265,1653
2025-07-02 15:58:40.265,1633
2025-07-02 15:58:40.265,1638
2025-07-02 15:58:40.265,1669
2025-07-02 15:58:40.265,1704
2025-07-02 15:58:40.265,1891
2025-07-02 15:58:40.265,1890
2025-07-02 15:58:40.265,2182
2025-07-02 15:58:40.265,2116
2025-07-02 15:58:40.265,1970
2025-07-02 15:58:40.265,1628
2025-07-02 15:58:40.265,1552
2025-07-02 15:58:40.265,1553
2025-07-02 15:58:40.265,1469
2025-07-02 15:58:40.265,1478
2025-07-02 15:58:40.265,1486
2025-07-02 15:58:40.265,1529
2025-07-02 15:58:40.265,1298
2025-07-02 15:58:40.265,1924
2025-07-02 15:58:40.265,4168
2025-07-02 15:58:40.265,3752
2025-07-02 15:58:40.265,543
2025-07-02 15:58:40.265,594
2025-07-02 15:58:40.265,1052
2025-07-02 15:58:40.265,1317
2025-07-02 15:58:40.265,1487
2025-07-02 15:58:40.265,1437
2025-07-02 15:58:40.265,1523
2025-07-02 15:58:40.265,1489
2025-07-02 15:58:40.265,1555
2025-07-02 15:58:40.265,1651
2025-07-02 15:58:40.265,1749
2025-07-02 15:58:40.265,1869
2025-07-02 15:58:40.265,1960
2025-07-02 15:58:40.265,2111
2025-07-02 15:58:40.265,2155
2025-07-02 15:58:40.265,2251
2025-07-02 15:58:40.265,2195
2025-07-02 15:58:40.265,2291
2025-07-02 15:58:40.265,2244
2025-07-02 15:58:40.265,2085
2025-07-02 15:58:40.265,1772
2025-07-02 15:58:40.265,1571
2025-07-02 15:58:40.265,1458
2025-07-02 15:58:40.265,1328
2025-07-02 15:58:40.265,1407
2025-07-02 15:58:40.265,1467
2025-07-02 15:58:40.265,1459
2025-07-02 15:58:40.265,1483
2025-07-02 15:58:40.265,1352
2025-07-02 15:58:40.265,1511
2025-07-02 15:58:40.265,1523
2025-07-02 15:58:40.265,1478
2025-07-02 15:58:40.265,1547
2025-07-02 15:58:40.265,1664
2025-07-02 15:58:40.265,1708
2025-07-02 15:58:40.265,1527
2025-07-02 15:58:40.265,1548
2025-07-02 15:58:40.265,1510
2025-07-02 15:58:40.265,1580
2025-07-02 15:58:40.265,1629
2025-07-02 15:58:40.265,1629
2025-07-02 15:58:40.265,1534
2025-07-02 15:58:40.265,1477
2025-07-02 15:58:40.265,1441
2025-07-02 15:58:40.265,1538
2025-07-02 15:58:40.265,1555
2025-07-02 15:58:40.265,1649
2025-07-02 15:58:40.265,1619
2025-07-02 15:58:40.265,1629
2025-07-02 15:58:40.265,1501
2025-07-02 15:58:40.265,1546
2025-07-02 15:58:40.265,1616
2025-07-02 15:58:40.265,1656
2025-07-02 15:58:40.265,1693
2025-07-02 15:58:40.265,1770
2025-07-02 15:58:40.265,1719
2025-07-02 15:58:40.265,1938
2025-07-02 15:58:40.265,1761
2025-07-02 15:58:40.265,1963
2025-07-02 15:58:40.265,2088
2025-07-02 15:58:40.265,2033
2025-07-02 15:58:40.265,1966
2025-07-02 15:58:40.265,1745
2025-07-02 15:58:40.265,1518
2025-07-02 15:58:40.265,1731
2025-07-02 15:58:40.265,1614
2025-07-02 15:58:40.265,1659
2025-07-02 15:58:40.265,1526
2025-07-02 15:58:40.265,1369
2025-07-02 15:58:40.265,1404
2025-07-02 15:58:40.265,3035
2025-07-02 15:58:40.265,4241
2025-07-02 15:58:40.265,2932
2025-07-02 15:58:40.265,25
2025-07-02 15:58:40.265,931
2025-07-02 15:58:40.265,1379
2025-07-02 15:58:40.265,1321
2025-07-02 15:58:40.265,1467
2025-07-02 15:58:40.265,1612
2025-07-02 15:58:40.265,1629
2025-07-02 15:58:40.265,1705
2025-07-02 15:58:40.265,1642
2025-07-02 15:58:40.265,1661
2025-07-02 15:58:40.265,1827
2025-07-02 15:58:40.265,1968
2025-07-02 15:58:40.265,2154
2025-07-02 15:58:40.265,2108
2025-07-02 15:58:40.265,2153
2025-07-02 15:58:40.265,2238
2025-07-02 15:58:40.265,2283
2025-07-02 15:58:40.265,2241
2025-07-02 15:58:40.265,2171
2025-07-02 15:58:40.265,2039
2025-07-02 15:58:40.265,1743
2025-07-02 15:58:40.265,1592
2025-07-02 15:58:40.265,1621
2025-07-02 15:58:40.265,1439
2025-07-02 15:58:40.265,1273
2025-07-02 15:58:40.265,1338
2025-07-02 15:58:40.265,1393
2025-07-02 15:58:40.265,1444
2025-07-02 15:58:40.265,1524
2025-07-02 15:58:40.265,1493
2025-07-02 15:58:40.265,1481
2025-07-02 15:58:40.265,1661
2025-07-02 15:58:40.265,1443
2025-07-02 15:58:40.265,1487
2025-07-02 15:58:40.265,1524
2025-07-02 15:58:40.265,1533
2025-07-02 15:58:40.265,1613
2025-07-02 15:58:40.265,1636
2025-07-02 15:58:40.265,1784
2025-07-02 15:58:42.702,1559
2025-07-02 15:58:42.702,1511
2025-07-02 15:58:42.702,1480
2025-07-02 15:58:42.702,1461
2025-07-02 15:58:42.702,1533
2025-07-02 15:58:42.702,1612
2025-07-02 15:58:42.702,1633
2025-07-02 15:58:42.702,1663
2025-07-02 15:58:42.702,1673
2025-07-02 15:58:42.702,1599
2025-07-02 15:58:42.702,1601
2025-07-02 15:58:42.702,1637
2025-07-02 15:58:42.702,1627
2025-07-02 15:58:42.702,1722
2025-07-02 15:58:42.702,1854
2025-07-02 15:58:42.702,2080
2025-07-02 15:58:42.702,2130
2025-07-02 15:58:42.702,2133
2025-07-02 15:58:42.702,1595
2025-07-02 15:58:42.702,1488
2025-07-02 15:58:42.702,1519
2025-07-02 15:58:42.702,1480
2025-07-02 15:58:42.702,1498
2025-07-02 15:58:42.702,1540
2025-07-02 15:58:42.702,1546
2025-07-02 15:58:42.702,1454
2025-07-02 15:58:42.702,2082
2025-07-02 15:58:42.702,4257
2025-07-02 15:58:42.702,3681
2025-07-02 15:58:42.702,601
2025-07-02 15:58:42.702,581
2025-07-02 15:58:42.702,1189
2025-07-02 15:58:42.702,1407
2025-07-02 15:58:42.702,1492
2025-07-02 15:58:42.702,1592
2025-07-02 15:58:42.702,1689
2025-07-02 15:58:42.702,1634
2025-07-02 15:58:42.702,1772
2025-07-02 15:58:42.702,1871
2025-07-02 15:58:42.702,1811
2025-07-02 15:58:42.702,1849
2025-07-02 15:58:42.702,1960
2025-07-02 15:58:42.702,2161
2025-07-02 15:58:42.702,2300
2025-07-02 15:58:42.702,2328
2025-07-02 15:58:42.702,2457
2025-07-02 15:58:42.702,2256
2025-07-02 15:58:42.702,2195
2025-07-02 15:58:42.702,2100
2025-07-02 15:58:42.702,1793
2025-07-02 15:58:42.702,1551
2025-07-02 15:58:42.702,1501
2025-07-02 15:58:42.702,1525
2025-07-02 15:58:42.702,1524
2025-07-02 15:58:42.702,1418
2025-07-02 15:58:42.702,1307
2025-07-02 15:58:42.702,1438
2025-07-02 15:58:42.702,1500
2025-07-02 15:58:42.702,1498
2025-07-02 15:58:42.702,1498
2025-07-02 15:58:42.702,1456
2025-07-02 15:58:42.702,1646
2025-07-02 15:58:42.702,1547
2025-07-02 15:58:42.702,1508
2025-07-02 15:58:42.702,1518
2025-07-02 15:58:42.702,1606
2025-07-02 15:58:42.702,1565
2025-07-02 15:58:42.702,1635
2025-07-02 15:58:42.702,1598
2025-07-02 15:58:42.702,1724
2025-07-02 15:58:42.702,1405
2025-07-02 15:58:42.702,1515
2025-07-02 15:58:42.702,1593
2025-07-02 15:58:42.702,1559
2025-07-02 15:58:42.702,1673
2025-07-02 15:58:42.702,1755
2025-07-02 15:58:42.702,1725
2025-07-02 15:58:42.702,1990
2025-07-02 15:58:42.702,2043
2025-07-02 15:58:42.702,2018
2025-07-02 15:58:42.702,2027
2025-07-02 15:58:42.702,1674
2025-07-02 15:58:42.702,1427
2025-07-02 15:58:42.702,1474
2025-07-02 15:58:42.702,1484
2025-07-02 15:58:42.702,1599
2025-07-02 15:58:42.702,1519
2025-07-02 15:58:42.702,1476
2025-07-02 15:58:42.702,1433
2025-07-02 15:58:42.702,2728
2025-07-02 15:58:42.702,4286
2025-07-02 15:58:42.702,2894
2025-07-02 15:58:42.702,197
2025-07-02 15:58:42.702,817
2025-07-02 15:58:42.702,1358
2025-07-02 15:58:42.702,1506
2025-07-02 15:58:42.702,1337
2025-07-02 15:58:42.702,1518
2025-07-02 15:58:42.702,1581
2025-07-02 15:58:42.702,1706
2025-07-02 15:58:42.702,1796
2025-07-02 15:58:42.702,1880
2025-07-02 15:58:42.702,1841
2025-07-02 15:58:42.702,1927
2025-07-02 15:58:42.702,2102
2025-07-02 15:58:42.702,2272
2025-07-02 15:58:42.702,2349
2025-07-02 15:58:42.702,2526
2025-07-02 15:58:42.702,2382
2025-07-02 15:58:42.702,2289
2025-07-02 15:58:42.702,2238
2025-07-02 15:58:42.702,1846
2025-07-02 15:58:42.702,1696
2025-07-02 15:58:42.702,1593
2025-07-02 15:58:42.702,1544
2025-07-02 15:58:42.702,1292
2025-07-02 15:58:42.702,1362
2025-07-02 15:58:42.702,1458
2025-07-02 15:58:42.702,1496
2025-07-02 15:58:42.702,1431
2025-07-02 15:58:42.702,1460
2025-07-02 15:58:42.702,1566
2025-07-02 15:58:42.702,1541
2025-07-02 15:58:42.702,1402
2025-07-02 15:58:42.702,1546
2025-07-02 15:58:42.702,1605
2025-07-02 15:58:42.702,1691
2025-07-02 15:58:42.702,1619
2025-07-02 15:58:42.702,1483
2025-07-02 15:58:42.702,1583
2025-07-02 15:58:42.702,1450
2025-07-02 15:58:42.702,1607
2025-07-02 15:58:42.702,1573
2025-07-02 15:58:42.702,1634
2025-07-02 15:58:42.702,1720
2025-07-02 15:58:42.702,1660
2025-07-02 15:58:42.702,1825
2025-07-02 15:58:42.702,2043
2025-07-02 15:58:42.702,1920
2025-07-02 15:58:42.702,1932
2025-07-02 15:58:42.702,1887
2025-07-02 15:58:42.702,1481
2025-07-02 15:58:42.702,1359
2025-07-02 15:58:42.702,1438
2025-07-02 15:58:42.702,1455
2025-07-02 15:58:42.702,1469
2025-07-02 15:58:42.702,1551
2025-07-02 15:58:42.702,1410
2025-07-02 15:58:42.702,1813
2025-07-02 15:58:42.702,4095
2025-07-02 15:58:42.702,3763
2025-07-02 15:58:42.702,694
2025-07-02 15:58:42.702,509
2025-07-02 15:58:42.702,1272
2025-07-02 15:58:42.702,1215
2025-07-02 15:58:42.702,1458
2025-07-02 15:58:42.702,1471
2025-07-02 15:58:42.702,1587
2025-07-02 15:58:42.702,1556
2025-07-02 15:58:42.702,1726
2025-07-02 15:58:42.702,1802
2025-07-02 15:58:42.702,1780
2025-07-02 15:58:42.702,1973
2025-07-02 15:58:42.702,2083
2025-07-02 15:58:42.702,2235
2025-07-02 15:58:42.702,2247
2025-07-02 15:58:42.702,2453
2025-07-02 15:58:42.702,2430
2025-07-02 15:58:42.702,2426
2025-07-02 15:58:42.702,2171
2025-07-02 15:58:42.702,2004
2025-07-02 15:58:42.702,1847
2025-07-02 15:58:42.702,1585
2025-07-02 15:58:42.702,1498
2025-07-02 15:58:42.702,1491
2025-07-02 15:58:42.702,1367
2025-07-02 15:58:42.702,1371
2025-07-02 15:58:42.702,1438
2025-07-02 15:58:42.702,1396
2025-07-02 15:58:42.702,1431
2025-07-02 15:58:42.702,1477
2025-07-02 15:58:42.702,1659
2025-07-02 15:58:42.702,1369
2025-07-02 15:58:42.702,1570
2025-07-02 15:58:42.702,1727
2025-07-02 15:58:42.702,1427
2025-07-02 15:58:42.702,1571
2025-07-02 15:58:42.702,1784
2025-07-02 15:58:42.702,1441
2025-07-02 15:58:42.702,1496
2025-07-02 15:58:42.702,1531
2025-07-02 15:58:42.702,1562
2025-07-02 15:58:42.702,1598
2025-07-02 15:58:42.702,1734
2025-07-02 15:58:42.702,1816
2025-07-02 15:58:42.702,2111
2025-07-02 15:58:42.702,1881
2025-07-02 15:58:42.702,1955
2025-07-02 15:58:42.702,1828
2025-07-02 15:58:42.702,1613
2025-07-02 15:58:45.436,1462
2025-07-02 15:58:45.436,1420
2025-07-02 15:58:45.436,1392
2025-07-02 15:58:45.436,1382
2025-07-02 15:58:45.436,1294
2025-07-02 15:58:45.436,1382
2025-07-02 15:58:45.436,1256
2025-07-02 15:58:45.436,1952
2025-07-02 15:58:45.436,4210
2025-07-02 15:58:45.436,3770
2025-07-02 15:58:45.436,585
2025-07-02 15:58:45.436,390
2025-07-02 15:58:45.436,1129
2025-07-02 15:58:45.436,1364
2025-07-02 15:58:45.436,1347
2025-07-02 15:58:45.436,1607
2025-07-02 15:58:45.436,1559
2025-07-02 15:58:45.436,1494
2025-07-02 15:58:45.436,1584
2025-07-02 15:58:45.436,1704
2025-07-02 15:58:45.436,1765
2025-07-02 15:58:45.436,1979
2025-07-02 15:58:45.436,2000
2025-07-02 15:58:45.436,2111
2025-07-02 15:58:45.436,2193
2025-07-02 15:58:45.436,2307
2025-07-02 15:58:45.436,2211
2025-07-02 15:58:45.436,2308
2025-07-02 15:58:45.436,2203
2025-07-02 15:58:45.436,1931
2025-07-02 15:58:45.436,1796
2025-07-02 15:58:45.436,1558
2025-07-02 15:58:45.436,1459
2025-07-02 15:58:45.436,1259
2025-07-02 15:58:45.436,1426
2025-07-02 15:58:45.436,1304
2025-07-02 15:58:45.436,1399
2025-07-02 15:58:45.436,1318
2025-07-02 15:58:45.436,1419
2025-07-02 15:58:45.436,1468
2025-07-02 15:58:45.436,1504
2025-07-02 15:58:45.436,1566
2025-07-02 15:58:45.436,1658
2025-07-02 15:58:45.436,1452
2025-07-02 15:58:45.436,1561
2025-07-02 15:58:45.436,1517
2025-07-02 15:58:45.436,1514
2025-07-02 15:58:45.436,1551
2025-07-02 15:58:45.436,1611
2025-07-02 15:58:45.436,1566
2025-07-02 15:58:45.436,1401
2025-07-02 15:58:45.436,1452
2025-07-02 15:58:45.436,1542
2025-07-02 15:58:45.436,1606
2025-07-02 15:58:45.436,1688
2025-07-02 15:58:45.436,1904
2025-07-02 15:58:45.436,1700
2025-07-02 15:58:45.436,2066
2025-07-02 15:58:45.436,1967
2025-07-02 15:58:45.436,2008
2025-07-02 15:58:45.436,1671
2025-07-02 15:58:45.436,1560
2025-07-02 15:58:45.436,1329
2025-07-02 15:58:45.436,1365
2025-07-02 15:58:45.436,1331
2025-07-02 15:58:45.436,1488
2025-07-02 15:58:45.436,1355
2025-07-02 15:58:45.436,1213
2025-07-02 15:58:45.436,1606
2025-07-02 15:58:45.436,3483
2025-07-02 15:58:45.436,4091
2025-07-02 15:58:45.436,1742
2025-07-02 15:58:45.436,116
2025-07-02 15:58:45.436,1008
2025-07-02 15:58:45.436,1338
2025-07-02 15:58:45.436,1311
2025-07-02 15:58:45.436,1494
2025-07-02 15:58:45.436,1535
2025-07-02 15:58:45.436,1431
2025-07-02 15:58:45.436,1649
2025-07-02 15:58:45.436,1660
2025-07-02 15:58:45.436,1703
2025-07-02 15:58:45.436,1813
2025-07-02 15:58:45.436,1987
2025-07-02 15:58:45.436,1969
2025-07-02 15:58:45.436,2116
2025-07-02 15:58:45.436,2366
2025-07-02 15:58:45.436,2295
2025-07-02 15:58:45.436,2497
2025-07-02 15:58:45.436,2122
2025-07-02 15:58:45.436,1997
2025-07-02 15:58:45.436,1932
2025-07-02 15:58:45.436,1600
2025-07-02 15:58:45.436,1500
2025-07-02 15:58:45.436,1289
2025-07-02 15:58:45.436,1417
2025-07-02 15:58:45.436,1366
2025-07-02 15:58:45.436,1394
2025-07-02 15:58:45.436,1351
2025-07-02 15:58:45.436,1513
2025-07-02 15:58:45.436,1381
2025-07-02 15:58:45.436,1443
2025-07-02 15:58:45.436,1444
2025-07-02 15:58:45.436,1589
2025-07-02 15:58:45.436,1530
2025-07-02 15:58:45.436,1642
2025-07-02 15:58:45.436,1490
2025-07-02 15:58:45.436,1462
2025-07-02 15:58:45.436,1533
2025-07-02 15:58:45.436,1556
2025-07-02 15:58:45.436,1499
2025-07-02 15:58:45.436,1577
2025-07-02 15:58:45.436,1613
2025-07-02 15:58:45.436,1530
2025-07-02 15:58:45.436,1549
2025-07-02 15:58:45.436,1526
2025-07-02 15:58:45.436,1540
2025-07-02 15:58:45.436,1609
2025-07-02 15:58:45.436,1557
2025-07-02 15:58:45.436,1623
2025-07-02 15:58:45.436,1814
2025-07-02 15:58:45.436,1832
2025-07-02 15:58:45.436,2020
2025-07-02 15:58:45.436,2123
2025-07-02 15:58:45.436,2141
2025-07-02 15:58:45.436,1874
2025-07-02 15:58:45.436,1645
2025-07-02 15:58:45.436,1454
2025-07-02 15:58:45.436,1572
2025-07-02 15:58:45.436,1398
2025-07-02 15:58:45.436,1532
2025-07-02 15:58:45.436,1462
2025-07-02 15:58:45.436,1454
2025-07-02 15:58:45.436,1306
2025-07-02 15:58:45.436,1906
2025-07-02 15:58:45.436,4219
2025-07-02 15:58:45.436,3713
2025-07-02 15:58:45.436,431
2025-07-02 15:58:45.436,587
2025-07-02 15:58:45.436,1202
2025-07-02 15:58:45.436,1258
2025-07-02 15:58:45.436,1501
2025-07-02 15:58:45.436,1510
2025-07-02 15:58:45.436,1495
2025-07-02 15:58:45.436,1625
2025-07-02 15:58:45.436,1616
2025-07-02 15:58:45.436,1685
2025-07-02 15:58:45.436,1773
2025-07-02 15:58:45.436,1870
2025-07-02 15:58:45.436,1910
2025-07-02 15:58:45.436,2056
2025-07-02 15:58:45.436,2134
2025-07-02 15:58:45.436,2192
2025-07-02 15:58:45.436,2419
2025-07-02 15:58:45.436,2236
2025-07-02 15:58:45.436,2247
2025-07-02 15:58:45.436,1965
2025-07-02 15:58:45.436,1716
2025-07-02 15:58:45.436,1604
2025-07-02 15:58:45.436,1525
2025-07-02 15:58:45.436,1375
2025-07-02 15:58:45.436,1312
2025-07-02 15:58:45.436,1344
2025-07-02 15:58:45.436,1420
2025-07-02 15:58:45.436,1415
2025-07-02 15:58:45.436,1445
2025-07-02 15:58:45.436,1477
2025-07-02 15:58:45.436,1578
2025-07-02 15:58:45.436,1413
2025-07-02 15:58:45.436,1536
2025-07-02 15:58:45.436,1488
2025-07-02 15:58:45.436,1489
2025-07-02 15:58:45.436,1499
2025-07-02 15:58:45.436,1467
2025-07-02 15:58:45.436,1629
2025-07-02 15:58:45.436,1455
2025-07-02 15:58:45.436,1476
2025-07-02 15:58:45.436,1609
2025-07-02 15:58:45.436,1476
2025-07-02 15:58:45.436,1544
2025-07-02 15:58:45.436,1363
2025-07-02 15:58:45.436,1442
2025-07-02 15:58:45.436,1541
2025-07-02 15:58:45.436,1446
2025-07-02 15:58:45.436,1577
2025-07-02 15:58:45.436,1599
2025-07-02 15:58:45.436,1462
2025-07-02 15:58:45.436,1652
2025-07-02 15:58:45.436,1441
2025-07-02 15:58:45.436,1668
2025-07-02 15:58:45.436,1830
2025-07-02 15:58:45.436,1891
2025-07-02 15:58:45.436,2143
2025-07-02 15:58:45.436,2134
2025-07-02 15:58:45.436,2001
2025-07-02 15:58:45.436,1821
2025-07-02 15:58:45.436,1407
2025-07-02 15:58:45.436,1361
2025-07-02 15:58:45.436,1423
2025-07-02 15:58:45.436,1515
2025-07-02 15:58:47.856,1490
2025-07-02 15:58:47.856,1482
2025-07-02 15:58:47.856,1333
2025-07-02 15:58:47.856,1604
2025-07-02 15:58:47.856,3852
2025-07-02 15:58:47.856,3946
2025-07-02 15:58:47.856,1282
2025-07-02 15:58:47.856,349
2025-07-02 15:58:47.856,983
2025-07-02 15:58:47.856,1372
2025-07-02 15:58:47.856,1500
2025-07-02 15:58:47.856,1495
2025-07-02 15:58:47.856,1592
2025-07-02 15:58:47.856,1492
2025-07-02 15:58:47.856,1650
2025-07-02 15:58:47.856,1713
2025-07-02 15:58:47.856,1751
2025-07-02 15:58:47.856,1884
2025-07-02 15:58:47.856,1834
2025-07-02 15:58:47.856,1996
2025-07-02 15:58:47.856,2104
2025-07-02 15:58:47.856,2215
2025-07-02 15:58:47.856,2379
2025-07-02 15:58:47.856,2359
2025-07-02 15:58:47.856,2223
2025-07-02 15:58:47.856,2117
2025-07-02 15:58:47.856,1708
2025-07-02 15:58:47.856,1673
2025-07-02 15:58:47.856,1524
2025-07-02 15:58:47.856,1454
2025-07-02 15:58:47.856,1547
2025-07-02 15:58:47.856,1391
2025-07-02 15:58:47.856,1348
2025-07-02 15:58:47.856,1540
2025-07-02 15:58:47.856,1371
2025-07-02 15:58:47.856,1458
2025-07-02 15:58:47.856,1520
2025-07-02 15:58:47.856,1601
2025-07-02 15:58:47.856,1665
2025-07-02 15:58:47.856,1568
2025-07-02 15:58:47.856,1515
2025-07-02 15:58:47.856,1506
2025-07-02 15:58:47.856,1560
2025-07-02 15:58:47.856,1563
2025-07-02 15:58:47.856,1695
2025-07-02 15:58:47.856,1506
2025-07-02 15:58:47.856,1719
2025-07-02 15:58:47.856,1543
2025-07-02 15:58:47.856,1590
2025-07-02 15:58:47.856,1548
2025-07-02 15:58:47.856,1519
2025-07-02 15:58:47.856,1681
2025-07-02 15:58:47.856,1570
2025-07-02 15:58:47.856,1688
2025-07-02 15:58:47.856,1866
2025-07-02 15:58:47.856,1676
2025-07-02 15:58:47.856,2051
2025-07-02 15:58:47.856,2153
2025-07-02 15:58:47.856,2097
2025-07-02 15:58:47.856,1832
2025-07-02 15:58:47.856,1563
2025-07-02 15:58:47.856,1504
2025-07-02 15:58:47.856,1533
2025-07-02 15:58:47.856,1510
2025-07-02 15:58:47.856,1604
2025-07-02 15:58:47.856,1433
2025-07-02 15:58:47.856,1511
2025-07-02 15:58:47.856,1397
2025-07-02 15:58:47.856,2681
2025-07-02 15:58:47.856,4302
2025-07-02 15:58:47.856,3006
2025-07-02 15:58:47.856,72
2025-07-02 15:58:47.856,826
2025-07-02 15:58:47.856,1435
2025-07-02 15:58:47.856,1437
2025-07-02 15:58:47.856,1610
2025-07-02 15:58:47.856,1453
2025-07-02 15:58:47.856,1553
2025-07-02 15:58:47.856,1758
2025-07-02 15:58:47.856,1734
2025-07-02 15:58:47.856,1838
2025-07-02 15:58:47.856,2007
2025-07-02 15:58:47.856,2086
2025-07-02 15:58:47.856,2081
2025-07-02 15:58:47.856,2157
2025-07-02 15:58:47.856,2259
2025-07-02 15:58:47.856,2328
2025-07-02 15:58:47.856,2387
2025-07-02 15:58:47.856,2297
2025-07-02 15:58:47.856,2274
2025-07-02 15:58:47.856,2083
2025-07-02 15:58:47.856,1902
2025-07-02 15:58:47.856,1693
2025-07-02 15:58:47.856,1402
2025-07-02 15:58:47.856,1447
2025-07-02 15:58:47.856,1460
2025-07-02 15:58:47.856,1498
2025-07-02 15:58:47.856,1579
2025-07-02 15:58:47.856,1665
2025-07-02 15:58:47.856,1655
2025-07-02 15:58:47.856,1565
2025-07-02 15:58:47.856,1545
2025-07-02 15:58:47.856,1555
2025-07-02 15:58:47.856,1583
2025-07-02 15:58:47.856,1558
2025-07-02 15:58:47.856,1578
2025-07-02 15:58:47.856,1662
2025-07-02 15:58:47.856,1667
2025-07-02 15:58:47.856,1706
2025-07-02 15:58:47.856,1669
2025-07-02 15:58:47.856,1502
2025-07-02 15:58:47.856,1546
2025-07-02 15:58:47.856,1745
2025-07-02 15:58:47.856,1724
2025-07-02 15:58:47.856,2023
2025-07-02 15:58:47.856,2096
2025-07-02 15:58:47.856,2032
2025-07-02 15:58:47.856,1856
2025-07-02 15:58:47.856,1583
2025-07-02 15:58:47.856,1306
2025-07-02 15:58:47.856,1523
2025-07-02 15:58:47.856,1391
2025-07-02 15:58:47.856,1448
2025-07-02 15:58:47.856,1505
2025-07-02 15:58:47.856,1463
2025-07-02 15:58:47.856,1350
2025-07-02 15:58:47.856,1867
2025-07-02 15:58:47.856,4198
2025-07-02 15:58:47.856,3638
2025-07-02 15:58:47.856,659
2025-07-02 15:58:47.856,489
2025-07-02 15:58:47.856,1136
2025-07-02 15:58:47.856,1393
2025-07-02 15:58:47.856,1464
2025-07-02 15:58:47.856,1524
2025-07-02 15:58:47.856,1669
2025-07-02 15:58:47.856,1632
2025-07-02 15:58:47.856,1768
2025-07-02 15:58:47.856,1868
2025-07-02 15:58:47.856,1804
2025-07-02 15:58:47.856,1959
2025-07-02 15:58:47.856,2096
2025-07-02 15:58:47.856,2068
2025-07-02 15:58:47.856,2325
2025-07-02 15:58:47.856,2333
2025-07-02 15:58:47.856,2436
2025-07-02 15:58:47.856,2242
2025-07-02 15:58:47.856,2135
2025-07-02 15:58:47.856,1955
2025-07-02 15:58:47.856,1812
2025-07-02 15:58:47.856,1488
2025-07-02 15:58:47.856,1441
2025-07-02 15:58:47.856,1390
2025-07-02 15:58:47.856,1333
2025-07-02 15:58:47.856,1223
2025-07-02 15:58:47.856,1403
2025-07-02 15:58:47.856,1384
2025-07-02 15:58:47.856,1510
2025-07-02 15:58:47.856,1536
2025-07-02 15:58:47.856,1467
2025-07-02 15:58:47.856,1362
2025-07-02 15:58:47.856,1468
2025-07-02 15:58:47.856,1425
2025-07-02 15:58:47.856,1422
2025-07-02 15:58:47.856,1507
2025-07-02 15:58:47.856,1467
2025-07-02 15:58:47.856,1651
2025-07-02 15:58:47.856,1500
2025-07-02 15:58:47.856,1899
2025-07-02 15:58:47.856,1874
2025-07-02 15:58:47.856,1899
2025-07-02 15:58:47.856,1686
2025-07-02 15:58:47.856,1549
2025-07-02 15:58:47.856,1189
2025-07-02 15:58:47.856,1276
2025-07-02 15:58:47.856,1257
2025-07-02 15:58:47.856,1343
2025-07-02 15:58:47.856,1395
2025-07-02 15:58:47.856,1240
2025-07-02 15:58:47.856,1196
2025-07-02 15:58:47.856,1846
2025-07-02 15:58:47.856,4176
2025-07-02 15:58:47.856,3629
2025-07-02 15:58:47.856,630
2025-07-02 15:58:47.856,429
2025-07-02 15:58:47.856,1136
2025-07-02 15:58:47.856,1310
2025-07-02 15:58:47.856,1377
2025-07-02 15:58:47.856,1617
2025-07-02 15:58:47.856,1587
2025-07-02 15:58:47.856,1679
2025-07-02 15:58:47.856,1708
2025-07-02 15:58:47.856,1839
2025-07-02 15:58:47.856,1869
2025-07-02 15:58:47.856,1989
2025-07-02 15:58:47.856,2117
2025-07-02 15:58:47.856,2386
2025-07-02 15:58:47.856,2353
2025-07-02 15:58:47.856,2317
2025-07-02 15:58:47.856,2492
2025-07-02 15:58:50.532,2314
2025-07-02 15:58:50.532,2131
2025-07-02 15:58:50.532,1987
2025-07-02 15:58:50.532,1854
2025-07-02 15:58:50.532,1755
2025-07-02 15:58:50.532,1511
2025-07-02 15:58:50.532,1382
2025-07-02 15:58:50.532,1504
2025-07-02 15:58:50.532,1355
2025-07-02 15:58:50.532,1554
2025-07-02 15:58:50.532,1520
2025-07-02 15:58:50.532,1483
2025-07-02 15:58:50.532,1531
2025-07-02 15:58:50.532,1507
2025-07-02 15:58:50.532,1697
2025-07-02 15:58:50.532,1677
2025-07-02 15:58:50.532,1617
2025-07-02 15:58:50.532,1603
2025-07-02 15:58:50.532,1665
2025-07-02 15:58:50.532,1763
2025-07-02 15:58:50.532,1786
2025-07-02 15:58:50.532,2137
2025-07-02 15:58:50.532,1993
2025-07-02 15:58:50.532,2007
2025-07-02 15:58:50.532,1896
2025-07-02 15:58:50.532,1481
2025-07-02 15:58:50.532,1384
2025-07-02 15:58:50.532,1454
2025-07-02 15:58:50.532,1385
2025-07-02 15:58:50.532,1421
2025-07-02 15:58:50.532,1436
2025-07-02 15:58:50.532,1430
2025-07-02 15:58:50.532,1151
2025-07-02 15:58:50.532,2193
2025-07-02 15:58:50.532,4314
2025-07-02 15:58:50.532,3463
2025-07-02 15:58:50.532,162
2025-07-02 15:58:50.532,857
2025-07-02 15:58:50.532,1192
2025-07-02 15:58:50.532,1265
2025-07-02 15:58:50.532,1306
2025-07-02 15:58:50.532,1459
2025-07-02 15:58:50.532,1599
2025-07-02 15:58:50.532,1686
2025-07-02 15:58:50.532,1835
2025-07-02 15:58:50.532,1858
2025-07-02 15:58:50.532,1783
2025-07-02 15:58:50.532,1900
2025-07-02 15:58:50.532,2039
2025-07-02 15:58:50.532,2241
2025-07-02 15:58:50.532,2263
2025-07-02 15:58:50.532,2436
2025-07-02 15:58:50.532,2524
2025-07-02 15:58:50.532,2128
2025-07-02 15:58:50.532,2208
2025-07-02 15:58:50.532,1901
2025-07-02 15:58:50.532,1699
2025-07-02 15:58:50.532,1602
2025-07-02 15:58:50.532,1334
2025-07-02 15:58:50.532,1410
2025-07-02 15:58:50.532,1504
2025-07-02 15:58:50.532,1471
2025-07-02 15:58:50.532,1537
2025-07-02 15:58:50.532,1512
2025-07-02 15:58:50.532,1455
2025-07-02 15:58:50.532,1491
2025-07-02 15:58:50.532,1472
2025-07-02 15:58:50.532,1609
2025-07-02 15:58:50.532,1535
2025-07-02 15:58:50.532,1678
2025-07-02 15:58:50.532,1651
2025-07-02 15:58:50.532,1510
2025-07-02 15:58:50.532,1473
2025-07-02 15:58:50.532,1670
2025-07-02 15:58:50.532,1492
2025-07-02 15:58:50.532,1805
2025-07-02 15:58:50.532,1858
2025-07-02 15:58:50.532,2102
2025-07-02 15:58:50.532,2002
2025-07-02 15:58:50.532,1955
2025-07-02 15:58:50.532,1909
2025-07-02 15:58:50.532,1527
2025-07-02 15:58:50.532,1317
2025-07-02 15:58:50.532,1347
2025-07-02 15:58:50.532,1439
2025-07-02 15:58:50.532,1404
2025-07-02 15:58:50.532,1380
2025-07-02 15:58:50.532,1344
2025-07-02 15:58:50.532,1242
2025-07-02 15:58:50.532,2013
2025-07-02 15:58:50.532,4216
2025-07-02 15:58:50.532,3677
2025-07-02 15:58:50.532,211
2025-07-02 15:58:50.532,646
2025-07-02 15:58:50.532,1086
2025-07-02 15:58:50.532,1235
2025-07-02 15:58:50.532,1386
2025-07-02 15:58:50.532,1428
2025-07-02 15:58:50.532,1512
2025-07-02 15:58:50.532,1642
2025-07-02 15:58:50.532,1509
2025-07-02 15:58:50.532,1691
2025-07-02 15:58:50.532,1650
2025-07-02 15:58:50.532,1681
2025-07-02 15:58:50.532,1947
2025-07-02 15:58:50.532,2019
2025-07-02 15:58:50.532,2146
2025-07-02 15:58:50.532,2274
2025-07-02 15:58:50.532,2151
2025-07-02 15:58:50.532,2178
2025-07-02 15:58:50.532,1975
2025-07-02 15:58:50.532,1897
2025-07-02 15:58:50.532,1619
2025-07-02 15:58:50.532,1573
2025-07-02 15:58:50.532,1271
2025-07-02 15:58:50.532,1314
2025-07-02 15:58:50.532,1424
2025-07-02 15:58:50.532,1231
2025-07-02 15:58:50.532,1399
2025-07-02 15:58:50.532,1328
2025-07-02 15:58:50.532,1558
2025-07-02 15:58:50.532,1470
2025-07-02 15:58:50.532,1525
2025-07-02 15:58:50.532,1468
2025-07-02 15:58:50.532,1499
2025-07-02 15:58:50.532,1539
2025-07-02 15:58:50.532,1622
2025-07-02 15:58:50.532,1598
2025-07-02 15:58:50.532,1643
2025-07-02 15:58:50.532,1486
2025-07-02 15:58:50.532,1496
2025-07-02 15:58:50.532,1495
2025-07-02 15:58:50.532,1594
2025-07-02 15:58:50.532,1590
2025-07-02 15:58:50.532,1524
2025-07-02 15:58:50.532,1618
2025-07-02 15:58:50.532,1589
2025-07-02 15:58:50.532,1528
2025-07-02 15:58:50.532,1806
2025-07-02 15:58:50.532,1855
2025-07-02 15:58:50.532,1967
2025-07-02 15:58:50.532,2141
2025-07-02 15:58:50.532,2134
2025-07-02 15:58:50.532,1937
2025-07-02 15:58:50.532,1611
2025-07-02 15:58:50.532,1477
2025-07-02 15:58:50.532,1443
2025-07-02 15:58:50.532,1453
2025-07-02 15:58:50.532,1316
2025-07-02 15:58:50.532,1497
2025-07-02 15:58:50.532,1363
2025-07-02 15:58:50.532,1234
2025-07-02 15:58:50.532,1950
2025-07-02 15:58:50.532,4192
2025-07-02 15:58:50.532,3743
2025-07-02 15:58:50.532,527
2025-07-02 15:58:50.532,706
2025-07-02 15:58:50.532,1191
2025-07-02 15:58:50.532,1441
2025-07-02 15:58:50.532,1327
2025-07-02 15:58:50.532,1432
2025-07-02 15:58:50.532,1539
2025-07-02 15:58:50.532,1677
2025-07-02 15:58:50.532,1727
2025-07-02 15:58:50.532,1755
2025-07-02 15:58:50.532,1839
2025-07-02 15:58:50.532,1832
2025-07-02 15:58:50.532,1880
2025-07-02 15:58:50.532,2048
2025-07-02 15:58:50.532,2170
2025-07-02 15:58:50.532,2289
2025-07-02 15:58:50.532,2360
2025-07-02 15:58:50.532,2171
2025-07-02 15:58:50.532,2202
2025-07-02 15:58:50.532,2006
2025-07-02 15:58:50.532,1695
2025-07-02 15:58:50.532,1641
2025-07-02 15:58:50.532,1387
2025-07-02 15:58:50.532,1368
2025-07-02 15:58:50.532,1452
2025-07-02 15:58:50.532,1426
2025-07-02 15:58:50.532,1430
2025-07-02 15:58:50.532,1489
2025-07-02 15:58:50.532,1570
2025-07-02 15:58:50.532,1503
2025-07-02 15:58:50.532,1480
2025-07-02 15:58:50.532,1504
2025-07-02 15:58:50.532,1526
2025-07-02 15:58:50.532,1531
2025-07-02 15:58:50.532,1631
2025-07-02 15:58:50.532,1605
2025-07-02 15:58:50.532,1573
2025-07-02 15:58:50.532,1454
2025-07-02 15:58:50.532,1533
2025-07-02 15:58:50.532,1382
2025-07-02 15:58:50.532,1501
2025-07-02 15:58:50.532,1493
2025-07-02 15:58:50.532,1476
2025-07-02 15:58:50.532,1631
2025-07-02 15:58:50.532,1633
2025-07-02 15:58:53.079,1415
2025-07-02 15:58:53.079,1457
2025-07-02 15:58:53.079,1496
2025-07-02 15:58:53.079,1560
2025-07-02 15:58:53.079,1517
2025-07-02 15:58:53.079,1638
2025-07-02 15:58:53.079,1633
2025-07-02 15:58:53.079,1552
2025-07-02 15:58:53.079,1472
2025-07-02 15:58:53.079,1602
2025-07-02 15:58:53.079,1859
2025-07-02 15:58:53.079,1880
2025-07-02 15:58:53.079,2242
2025-07-02 15:58:53.079,2081
2025-07-02 15:58:53.079,2109
2025-07-02 15:58:53.079,1927
2025-07-02 15:58:53.079,1533
2025-07-02 15:58:53.079,1480
2025-07-02 15:58:53.079,1525
2025-07-02 15:58:53.079,1595
2025-07-02 15:58:53.079,1541
2025-07-02 15:58:53.079,1502
2025-07-02 15:58:53.079,1557
2025-07-02 15:58:53.079,1253
2025-07-02 15:58:53.079,2678
2025-07-02 15:58:53.079,4306
2025-07-02 15:58:53.079,3096
2025-07-02 15:58:53.079,-14
2025-07-02 15:58:53.079,901
2025-07-02 15:58:53.079,1322
2025-07-02 15:58:53.079,1402
2025-07-02 15:58:53.079,1427
2025-07-02 15:58:53.079,1463
2025-07-02 15:58:53.079,1468
2025-07-02 15:58:53.079,1603
2025-07-02 15:58:53.079,1654
2025-07-02 15:58:53.079,1685
2025-07-02 15:58:53.079,1877
2025-07-02 15:58:53.079,1943
2025-07-02 15:58:53.079,1950
2025-07-02 15:58:53.079,2080
2025-07-02 15:58:53.079,2075
2025-07-02 15:58:53.079,2226
2025-07-02 15:58:53.079,2238
2025-07-02 15:58:53.079,2265
2025-07-02 15:58:53.079,2196
2025-07-02 15:58:53.079,1996
2025-07-02 15:58:53.079,1776
2025-07-02 15:58:53.079,1686
2025-07-02 15:58:53.079,1562
2025-07-02 15:58:53.079,1434
2025-07-02 15:58:53.079,1513
2025-07-02 15:58:53.079,1500
2025-07-02 15:58:53.079,1390
2025-07-02 15:58:53.079,1641
2025-07-02 15:58:53.079,1484
2025-07-02 15:58:53.079,1582
2025-07-02 15:58:53.079,1532
2025-07-02 15:58:53.079,1591
2025-07-02 15:58:53.079,1479
2025-07-02 15:58:53.079,1565
2025-07-02 15:58:53.079,1508
2025-07-02 15:58:53.079,1553
2025-07-02 15:58:53.079,1598
2025-07-02 15:58:53.079,1496
2025-07-02 15:58:53.079,1517
2025-07-02 15:58:53.079,1501
2025-07-02 15:58:53.079,1535
2025-07-02 15:58:53.079,1495
2025-07-02 15:58:53.079,1485
2025-07-02 15:58:53.079,1437
2025-07-02 15:58:53.079,1474
2025-07-02 15:58:53.079,1501
2025-07-02 15:58:53.079,1617
2025-07-02 15:58:53.079,1564
2025-07-02 15:58:53.079,1512
2025-07-02 15:58:53.079,1586
2025-07-02 15:58:53.079,1522
2025-07-02 15:58:53.079,1538
2025-07-02 15:58:53.079,1507
2025-07-02 15:58:53.079,1662
2025-07-02 15:58:53.079,1775
2025-07-02 15:58:53.079,1801
2025-07-02 15:58:53.079,1874
2025-07-02 15:58:53.079,2096
2025-07-02 15:58:53.079,2085
2025-07-02 15:58:53.079,2046
2025-07-02 15:58:53.079,1866
2025-07-02 15:58:53.079,1557
2025-07-02 15:58:53.079,1442
2025-07-02 15:58:53.079,1523
2025-07-02 15:58:53.079,1535
2025-07-02 15:58:53.079,1613
2025-07-02 15:58:53.079,1626
2025-07-02 15:58:53.079,1369
2025-07-02 15:58:53.079,1379
2025-07-02 15:58:53.079,3373
2025-07-02 15:58:53.079,4134
2025-07-02 15:58:53.079,2156
2025-07-02 15:58:53.079,15
2025-07-02 15:58:53.079,946
2025-07-02 15:58:53.079,1459
2025-07-02 15:58:53.079,1631
2025-07-02 15:58:53.079,1423
2025-07-02 15:58:53.079,1640
2025-07-02 15:58:53.079,1582
2025-07-02 15:58:53.079,1609
2025-07-02 15:58:53.079,1717
2025-07-02 15:58:53.079,1889
2025-07-02 15:58:53.079,1930
2025-07-02 15:58:53.079,2029
2025-07-02 15:58:53.079,2071
2025-07-02 15:58:53.079,2119
2025-07-02 15:58:53.079,2155
2025-07-02 15:58:53.079,2280
2025-07-02 15:58:53.079,2222
2025-07-02 15:58:53.079,2389
2025-07-02 15:58:53.079,2107
2025-07-02 15:58:53.079,1907
2025-07-02 15:58:53.079,1704
2025-07-02 15:58:53.079,1586
2025-07-02 15:58:53.079,1501
2025-07-02 15:58:53.079,1563
2025-07-02 15:58:53.079,1503
2025-07-02 15:58:53.079,1568
2025-07-02 15:58:53.079,1438
2025-07-02 15:58:53.079,1555
2025-07-02 15:58:53.079,1632
2025-07-02 15:58:53.079,1585
2025-07-02 15:58:53.079,1672
2025-07-02 15:58:53.079,1567
2025-07-02 15:58:53.079,1602
2025-07-02 15:58:53.079,1627
2025-07-02 15:58:53.079,1596
2025-07-02 15:58:53.079,1608
2025-07-02 15:58:53.079,1625
2025-07-02 15:58:53.079,1495
2025-07-02 15:58:53.079,1655
2025-07-02 15:58:53.079,1686
2025-07-02 15:58:53.079,1593
2025-07-02 15:58:53.079,1492
2025-07-02 15:58:53.079,1497
2025-07-02 15:58:53.079,1649
2025-07-02 15:58:53.079,1578
2025-07-02 15:58:53.079,1640
2025-07-02 15:58:53.079,1666
2025-07-02 15:58:53.079,1585
2025-07-02 15:58:53.079,1723
2025-07-02 15:58:53.079,1697
2025-07-02 15:58:53.079,1847
2025-07-02 15:58:53.079,1996
2025-07-02 15:58:53.079,2018
2025-07-02 15:58:53.079,2074
2025-07-02 15:58:53.079,1649
2025-07-02 15:58:53.079,1616
2025-07-02 15:58:53.079,1414
2025-07-02 15:58:53.079,1347
2025-07-02 15:58:53.079,1421
2025-07-02 15:58:53.079,1399
2025-07-02 15:58:53.079,1492
2025-07-02 15:58:53.079,1320
2025-07-02 15:58:53.079,1768
2025-07-02 15:58:53.079,4112
2025-07-02 15:58:53.079,3833
2025-07-02 15:58:53.079,799
2025-07-02 15:58:53.079,484
2025-07-02 15:58:53.079,1263
2025-07-02 15:58:53.079,1423
2025-07-02 15:58:53.079,1563
2025-07-02 15:58:53.079,1498
2025-07-02 15:58:53.079,1487
2025-07-02 15:58:53.079,1673
2025-07-02 15:58:53.079,1674
2025-07-02 15:58:53.079,1656
2025-07-02 15:58:53.079,1818
2025-07-02 15:58:53.079,1862
2025-07-02 15:58:53.079,2046
2025-07-02 15:58:53.079,2316
2025-07-02 15:58:53.079,2063
2025-07-02 15:58:53.079,2207
2025-07-02 15:58:53.079,2156
2025-07-02 15:58:53.079,2168
2025-07-02 15:58:53.079,2147
2025-07-02 15:58:53.079,2127
2025-07-02 15:58:53.079,1927
2025-07-02 15:58:53.079,1664
2025-07-02 15:58:53.079,1448
2025-07-02 15:58:53.079,1379
2025-07-02 15:58:53.079,1424
2025-07-02 15:58:53.079,1389
2025-07-02 15:58:53.079,1587
2025-07-02 15:58:53.079,1583
2025-07-02 15:58:53.079,1614
2025-07-02 15:58:53.079,1495
2025-07-02 15:58:53.079,1537
2025-07-02 15:58:53.079,1456
2025-07-02 15:58:53.079,1552
2025-07-02 15:58:53.079,1689
2025-07-02 15:58:53.079,1680
2025-07-02 15:58:53.079,1624
2025-07-02 15:58:55.620,1672
2025-07-02 15:58:55.620,1561
2025-07-02 15:58:55.620,1496
2025-07-02 15:58:55.620,1581
